Typical Measured Spectrum of Semrock FF01-578/21 Optical Filter	
For wavelengths between 320 and 1120 nm, values near or below 3e-7 (Optical Density 6.5) are measurement noise limited.
For wavelengths < 320 nm and > 1120 nm, values near or below 3e-6 (Optical Density 5.5) are measurement noise limited. 
Data format:  Wavelength (nm) <tab> Transmission (0 to 1)
265.0	1.6096e-06
265.2	1.5957e-06
265.4	1.582e-06
265.6	1.5684e-06
265.8	1.5549e-06
266.0	1.5416e-06
266.2	1.5283e-06
266.4	1.5152e-06
266.6	1.5021e-06
266.8	1.4892e-06
267.0	1.4764e-06
267.2	1.4637e-06
267.4	1.4511e-06
267.6	1.4387e-06
267.8	1.4263e-06
268.0	1.414e-06
268.2	1.4019e-06
268.4	1.3898e-06
268.6	1.3779e-06
268.8	1.366e-06
269.0	1.3543e-06
269.2	1.3427e-06
269.4	1.3311e-06
269.6	1.3175e-06
269.8	1.304e-06
270.0	1.2907e-06
270.2	1.2774e-06
270.4	1.2643e-06
270.6	1.2514e-06
270.8	1.2385e-06
271.0	1.2258e-06
271.2	1.2133e-06
271.4	1.2008e-06
271.6	1.1885e-06
271.8	1.1763e-06
272.0	1.1643e-06
272.2	1.1523e-06
272.4	1.1405e-06
272.6	1.1288e-06
272.8	1.1172e-06
273.0	1.1058e-06
273.2	1.0945e-06
273.4	1.0832e-06
273.6	1.0721e-06
273.8	1.0611e-06
274.0	1.0502e-06
274.2	1.0411e-06
274.4	1.033e-06
274.6	1.0251e-06
274.8	1.0172e-06
275.0	1.0094e-06
275.2	9.9969e-07
275.4	9.901e-07
275.6	9.8059e-07
275.8	9.7117e-07
276.0	9.6185e-07
276.2	9.5261e-07
276.4	9.4347e-07
276.6	9.3441e-07
276.8	9.2543e-07
277.0	9.1655e-07
277.2	9.0775e-07
277.4	8.9903e-07
277.6	8.904e-07
277.8	8.8185e-07
278.0	9.2025e-07
278.2	1.0006e-06
278.4	1.0879e-06
278.6	1.1829e-06
278.8	1.2861e-06
279.0	1.3984e-06
279.2	1.5205e-06
279.4	1.6532e-06
279.6	1.7975e-06
279.8	1.9544e-06
280.0	2.125e-06
280.2	2.3105e-06
280.4	2.5122e-06
280.6	2.7315e-06
280.8	2.97e-06
281.0	3.2292e-06
281.2	3.5111e-06
281.4	3.8176e-06
281.6	4.1508e-06
281.8	4.5131e-06
282.0	4.9071e-06
282.2	5.3355e-06
282.4	5.8012e-06
282.6	6.0647e-06
282.8	5.3915e-06
283.0	4.7929e-06
283.2	4.2609e-06
283.4	3.7878e-06
283.6	3.3673e-06
283.8	2.9935e-06
284.0	2.6612e-06
284.2	2.3658e-06
284.4	2.1031e-06
284.6	1.8697e-06
284.8	1.6621e-06
285.0	1.4776e-06
285.2	1.5265e-06
285.4	1.5771e-06
285.6	1.6293e-06
285.8	1.6832e-06
286.0	1.7389e-06
286.2	1.7965e-06
286.4	1.856e-06
286.6	1.9174e-06
286.8	1.9809e-06
287.0	2.0465e-06
287.2	2.1143e-06
287.4	2.1843e-06
287.6	2.2566e-06
287.8	2.3313e-06
288.0	2.208e-06
288.2	2.0036e-06
288.4	1.8181e-06
288.6	1.6498e-06
288.8	1.4971e-06
289.0	1.3585e-06
289.2	1.2327e-06
289.4	1.1186e-06
289.6	1.015e-06
289.8	9.2106e-07
290.0	8.3579e-07
290.2	7.5841e-07
290.4	6.882e-07
290.6	6.2449e-07
290.8	5.6668e-07
291.0	5.1421e-07
291.2	4.6661e-07
291.4	4.2341e-07
291.6	3.8421e-07
291.8	3.4864e-07
292.0	3.1637e-07
292.2	2.8708e-07
292.4	2.605e-07
292.6	2.6486e-07
292.8	3.429e-07
293.0	4.4394e-07
293.2	5.7476e-07
293.4	7.4412e-07
293.6	9.6339e-07
293.8	1.2473e-06
294.0	1.6148e-06
294.2	2.0906e-06
294.4	2.7067e-06
294.6	3.5042e-06
294.8	4.5368e-06
295.0	5.8737e-06
295.2	6.0667e-06
295.4	6.2662e-06
295.6	6.4722e-06
295.8	6.2762e-06
296.0	5.8602e-06
296.2	5.4717e-06
296.4	5.109e-06
296.6	4.7704e-06
296.8	4.4541e-06
297.0	4.1589e-06
297.2	3.8832e-06
297.4	3.6258e-06
297.6	3.3854e-06
297.8	3.161e-06
298.0	2.9515e-06
298.2	2.7558e-06
298.4	2.5732e-06
298.6	2.4026e-06
298.8	2.2433e-06
299.0	2.0946e-06
299.2	1.9558e-06
299.4	1.8261e-06
299.6	1.7051e-06
299.8	1.592e-06
300.0	1.4865e-06
300.2	1.388e-06
300.4	1.2978e-06
300.6	1.2178e-06
300.8	1.1428e-06
301.0	1.0724e-06
301.2	1.0063e-06
301.4	9.443e-07
301.6	8.8613e-07
301.8	8.3154e-07
302.0	7.8031e-07
302.2	7.3223e-07
302.4	6.8712e-07
302.6	6.4479e-07
302.8	6.0506e-07
303.0	5.6779e-07
303.2	5.3281e-07
303.4	4.9998e-07
303.6	4.6918e-07
303.8	4.4027e-07
304.0	4.1315e-07
304.2	3.877e-07
304.4	3.6381e-07
304.6	3.414e-07
304.8	3.2036e-07
305.0	3.0063e-07
305.2	3.1692e-07
305.4	3.3409e-07
305.6	3.5219e-07
305.8	3.7128e-07
306.0	3.914e-07
306.2	4.1261e-07
306.4	4.3497e-07
306.6	4.5854e-07
306.8	4.8338e-07
307.0	4.9997e-07
307.2	4.7555e-07
307.4	4.5232e-07
307.6	4.3022e-07
307.8	4.092e-07
308.0	3.8921e-07
308.2	3.702e-07
308.4	3.5211e-07
308.6	3.3491e-07
308.8	3.1855e-07
309.0	3.0299e-07
309.2	2.8819e-07
309.4	2.7411e-07
309.6	2.6072e-07
309.8	2.4798e-07
310.0	2.3586e-07
310.2	2.2434e-07
310.4	2.1338e-07
310.6	2.0296e-07
310.8	1.9304e-07
311.0	1.8361e-07
311.2	1.7464e-07
311.4	1.6611e-07
311.6	1.58e-07
311.8	1.5583e-07
312.0	1.5485e-07
312.2	1.5387e-07
312.4	1.529e-07
312.6	1.5193e-07
312.8	1.5097e-07
313.0	1.5001e-07
313.2	1.4906e-07
313.4	1.4812e-07
313.6	1.4719e-07
313.8	1.4625e-07
314.0	1.4533e-07
314.2	1.4441e-07
314.4	1.435e-07
314.6	1.4259e-07
314.8	1.4169e-07
315.0	1.4079e-07
315.2	1.399e-07
315.4	1.3902e-07
315.6	1.3814e-07
315.8	1.3726e-07
316.0	1.364e-07
316.2	1.3553e-07
316.4	1.3484e-07
316.6	1.3432e-07
316.8	1.338e-07
317.0	1.3328e-07
317.2	1.3277e-07
317.4	1.3225e-07
317.6	1.3174e-07
317.8	1.3123e-07
318.0	1.3072e-07
318.2	1.3022e-07
318.4	1.2972e-07
318.6	1.2921e-07
318.8	1.2871e-07
319.0	1.2822e-07
319.2	1.2772e-07
319.4	1.2723e-07
319.6	1.2673e-07
319.8	1.2624e-07
320.0	1.2576e-07
320.2	1.2527e-07
320.4	1.2479e-07
320.6	1.243e-07
320.8	1.2382e-07
321.0	1.2447e-07
321.2	1.3121e-07
321.4	1.3831e-07
321.6	1.458e-07
321.8	1.5369e-07
322.0	1.6202e-07
322.2	1.7079e-07
322.4	1.8004e-07
322.6	1.8978e-07
322.8	2.0006e-07
323.0	2.1089e-07
323.2	2.2231e-07
323.4	2.3435e-07
323.6	2.4704e-07
323.8	2.6042e-07
324.0	2.7452e-07
324.2	2.8938e-07
324.4	3.0505e-07
324.6	3.2157e-07
324.8	3.3898e-07
325.0	3.5733e-07
325.2	3.7668e-07
325.4	3.9708e-07
325.6	4.1858e-07
325.8	4.3018e-07
326.0	4.4005e-07
326.2	4.5014e-07
326.4	4.6046e-07
326.6	4.7103e-07
326.8	4.8183e-07
327.0	4.9288e-07
327.2	5.0419e-07
327.4	5.1575e-07
327.6	5.2758e-07
327.8	5.3968e-07
328.0	5.5206e-07
328.2	5.6472e-07
328.4	5.7768e-07
328.6	5.9093e-07
328.8	6.0448e-07
329.0	6.1834e-07
329.2	6.3253e-07
329.4	6.4704e-07
329.6	6.6188e-07
329.8	6.7706e-07
330.0	6.9259e-07
330.2	7.0847e-07
330.4	6.8935e-07
330.6	6.4276e-07
330.8	5.9931e-07
331.0	5.5881e-07
331.2	5.2104e-07
331.4	4.8582e-07
331.6	4.5298e-07
331.8	4.2237e-07
332.0	3.9382e-07
332.2	3.672e-07
332.4	3.4238e-07
332.6	3.1924e-07
332.8	2.9766e-07
333.0	2.7754e-07
333.2	2.5878e-07
333.4	2.4129e-07
333.6	2.2498e-07
333.8	2.0978e-07
334.0	1.956e-07
334.2	1.8238e-07
334.4	1.7005e-07
334.6	1.5856e-07
334.8	1.4784e-07
335.0	1.4032e-07
335.2	1.5081e-07
335.4	1.6208e-07
335.6	1.742e-07
335.8	1.8722e-07
336.0	2.0122e-07
336.2	2.1626e-07
336.4	2.3243e-07
336.6	2.498e-07
336.8	2.6848e-07
337.0	2.8705e-07
337.2	3.0201e-07
337.4	3.1775e-07
337.6	3.3432e-07
337.8	3.5174e-07
338.0	3.7008e-07
338.2	3.8937e-07
338.4	4.0967e-07
338.6	4.3102e-07
338.8	4.5349e-07
339.0	4.7713e-07
339.2	5.02e-07
339.4	5.2817e-07
339.6	5.557e-07
339.8	5.8467e-07
340.0	6.1514e-07
340.2	6.4721e-07
340.4	6.8095e-07
340.6	7.1644e-07
340.8	7.5379e-07
341.0	7.9308e-07
341.2	8.3442e-07
341.4	8.7792e-07
341.6	9.2369e-07
341.8	8.4753e-07
342.0	7.7029e-07
342.2	7.0009e-07
342.4	6.3629e-07
342.6	5.783e-07
342.8	5.256e-07
343.0	4.777e-07
343.2	4.3416e-07
343.4	3.946e-07
343.6	3.5863e-07
343.8	3.2595e-07
344.0	2.9625e-07
344.2	2.6925e-07
344.4	2.4471e-07
344.6	2.2241e-07
344.8	2.0214e-07
345.0	1.8372e-07
345.2	1.6697e-07
345.4	1.5176e-07
345.6	1.3793e-07
345.8	1.2536e-07
346.0	1.1393e-07
346.2	1.0355e-07
346.4	1.0e-07
346.6	1.0e-07
346.8	1.0e-07
347.0	1.0e-07
347.2	1.0e-07
347.4	1.0e-07
347.6	1.0e-07
347.8	1.0e-07
348.0	1.0e-07
348.2	1.0e-07
348.4	1.0e-07
348.6	1.0e-07
348.8	1.0e-07
349.0	1.0e-07
349.2	1.0e-07
349.4	1.0e-07
349.6	1.0e-07
349.8	1.0e-07
350.0	1.0e-07
350.2	1.0e-07
350.4	1.0e-07
350.6	1.0e-07
350.8	1.0e-07
351.0	1.0182e-07
351.2	1.0722e-07
351.4	1.1291e-07
351.6	1.1889e-07
351.8	1.2519e-07
352.0	1.3183e-07
352.2	1.3882e-07
352.4	1.4617e-07
352.6	1.5392e-07
352.8	1.6208e-07
353.0	1.7067e-07
353.2	1.7972e-07
353.4	1.8925e-07
353.6	1.9928e-07
353.8	2.0984e-07
354.0	2.2097e-07
354.2	2.3268e-07
354.4	2.4501e-07
354.6	2.58e-07
354.8	2.7168e-07
355.0	2.8608e-07
355.2	3.0124e-07
355.4	3.1721e-07
355.6	3.3211e-07
355.8	3.2389e-07
356.0	3.1588e-07
356.2	3.0807e-07
356.4	3.0045e-07
356.6	2.9302e-07
356.8	2.8577e-07
357.0	2.787e-07
357.2	2.7181e-07
357.4	2.6508e-07
357.6	2.5852e-07
357.8	2.5213e-07
358.0	2.4589e-07
358.2	2.3981e-07
358.4	2.3388e-07
358.6	2.2809e-07
358.8	2.2245e-07
359.0	2.1695e-07
359.2	2.1158e-07
359.4	2.0635e-07
359.6	2.0124e-07
359.8	1.9627e-07
360.0	1.9141e-07
360.2	1.8668e-07
360.4	1.8337e-07
360.6	1.8041e-07
360.8	1.7749e-07
361.0	1.7463e-07
361.2	1.7181e-07
361.4	1.6903e-07
361.6	1.6631e-07
361.8	1.6362e-07
362.0	1.6098e-07
362.2	1.5838e-07
362.4	1.5582e-07
362.6	1.5331e-07
362.8	1.5083e-07
363.0	1.484e-07
363.2	1.46e-07
363.4	1.4365e-07
363.6	1.4133e-07
363.8	1.3905e-07
364.0	1.368e-07
364.2	1.3459e-07
364.4	1.3242e-07
364.6	1.3028e-07
364.8	1.2818e-07
365.0	1.292e-07
365.2	1.386e-07
365.4	1.4867e-07
365.6	1.5949e-07
365.8	1.7109e-07
366.0	1.8353e-07
366.2	1.9687e-07
366.4	2.1119e-07
366.6	2.2655e-07
366.8	2.4302e-07
367.0	2.4832e-07
367.2	2.3623e-07
367.4	2.2473e-07
367.6	2.1379e-07
367.8	2.0338e-07
368.0	1.9348e-07
368.2	1.8406e-07
368.4	1.751e-07
368.6	1.6658e-07
368.8	1.5847e-07
369.0	1.5075e-07
369.2	1.4342e-07
369.4	1.3643e-07
369.6	1.2979e-07
369.8	1.2347e-07
370.0	1.1746e-07
370.2	1.1174e-07
370.4	1.063e-07
370.6	1.0113e-07
370.8	1.0353e-07
371.0	1.0827e-07
371.2	1.1323e-07
371.4	1.1841e-07
371.6	1.2384e-07
371.8	1.2951e-07
372.0	1.3544e-07
372.2	1.4164e-07
372.4	1.4812e-07
372.6	1.5491e-07
372.8	1.62e-07
373.0	1.6942e-07
373.2	1.7718e-07
373.4	1.8529e-07
373.6	1.9377e-07
373.8	2.0265e-07
374.0	2.1193e-07
374.2	2.2163e-07
374.4	2.3215e-07
374.6	2.455e-07
374.8	2.5962e-07
375.0	2.7454e-07
375.2	2.9032e-07
375.4	3.0702e-07
375.6	3.2467e-07
375.8	3.4333e-07
376.0	3.6307e-07
376.2	3.8394e-07
376.4	4.0602e-07
376.6	4.2936e-07
376.8	4.5404e-07
377.0	4.8014e-07
377.2	5.0775e-07
377.4	5.3694e-07
377.6	5.6781e-07
377.8	6.0045e-07
378.0	6.3497e-07
378.2	6.4287e-07
378.4	6.2623e-07
378.6	6.1001e-07
378.8	5.9422e-07
379.0	5.7883e-07
379.2	5.6384e-07
379.4	5.4924e-07
379.6	5.3502e-07
379.8	5.2117e-07
380.0	5.0767e-07
380.2	4.9453e-07
380.4	4.8172e-07
380.6	4.6925e-07
380.8	4.571e-07
381.0	4.4526e-07
381.2	4.3373e-07
381.4	4.225e-07
381.6	4.1156e-07
381.8	4.009e-07
382.0	4.0052e-07
382.2	4.0101e-07
382.4	4.015e-07
382.6	4.02e-07
382.8	4.0249e-07
383.0	4.0298e-07
383.2	4.0348e-07
383.4	4.0398e-07
383.6	4.0447e-07
383.8	4.0497e-07
384.0	4.0547e-07
384.2	4.0597e-07
384.4	4.0646e-07
384.6	4.0696e-07
384.8	4.0746e-07
385.0	4.0796e-07
385.2	4.0847e-07
385.4	4.0897e-07
385.6	3.9966e-07
385.8	3.7049e-07
386.0	3.4344e-07
386.2	3.1838e-07
386.4	2.9514e-07
386.6	2.736e-07
386.8	2.5363e-07
387.0	2.3512e-07
387.2	2.1795e-07
387.4	2.0205e-07
387.6	1.873e-07
387.8	1.7363e-07
388.0	1.6096e-07
388.2	1.4921e-07
388.4	1.3832e-07
388.6	1.2822e-07
388.8	1.1886e-07
389.0	1.1019e-07
389.2	1.0214e-07
389.4	1.0e-07
389.6	1.0e-07
389.8	1.0e-07
390.0	1.0e-07
390.2	1.0e-07
390.4	1.0e-07
390.6	1.0e-07
390.8	1.0e-07
391.0	1.0e-07
391.2	1.0e-07
391.4	1.0e-07
391.6	1.0e-07
391.8	1.0e-07
392.0	1.0e-07
392.2	1.0e-07
392.4	1.0e-07
392.6	1.0e-07
392.8	1.0e-07
393.0	1.041e-07
393.2	1.1011e-07
393.4	1.1646e-07
393.6	1.2319e-07
393.8	1.303e-07
394.0	1.3783e-07
394.2	1.4578e-07
394.4	1.542e-07
394.6	1.6311e-07
394.8	1.7252e-07
395.0	1.8249e-07
395.2	1.9302e-07
395.4	2.0417e-07
395.6	2.1596e-07
395.8	2.2843e-07
396.0	2.4162e-07
396.2	2.5557e-07
396.4	2.7033e-07
396.6	2.8195e-07
396.8	2.6655e-07
397.0	2.5199e-07
397.2	2.3823e-07
397.4	2.2522e-07
397.6	2.1291e-07
397.8	2.0129e-07
398.0	1.9029e-07
398.2	1.799e-07
398.4	1.7007e-07
398.6	1.6078e-07
398.8	1.52e-07
399.0	1.437e-07
399.2	1.3585e-07
399.4	1.2843e-07
399.6	1.2142e-07
399.8	1.1478e-07
400.0	1.0852e-07
400.2	1.0259e-07
400.4	1.0001e-07
400.6	1.0002e-07
400.8	1.0004e-07
401.0	1.0005e-07
401.2	1.0007e-07
401.4	1.0008e-07
401.6	1.001e-07
401.8	1.0011e-07
402.0	1.0013e-07
402.2	1.0014e-07
402.4	1.0016e-07
402.6	1.0017e-07
402.8	1.0019e-07
403.0	1.002e-07
403.2	1.0022e-07
403.4	1.0023e-07
403.6	1.0025e-07
403.8	1.0026e-07
404.0	1.0028e-07
404.2	1.0064e-07
404.4	1.0101e-07
404.6	1.0139e-07
404.8	1.0176e-07
405.0	1.0214e-07
405.2	1.0251e-07
405.4	1.0289e-07
405.6	1.0327e-07
405.8	1.0366e-07
406.0	1.0404e-07
406.2	1.0442e-07
406.4	1.0481e-07
406.6	1.052e-07
406.8	1.0559e-07
407.0	1.0598e-07
407.2	1.0637e-07
407.4	1.0676e-07
407.6	1.0716e-07
407.8	1.0722e-07
408.0	1.0681e-07
408.2	1.064e-07
408.4	1.0599e-07
408.6	1.0558e-07
408.8	1.0518e-07
409.0	1.0478e-07
409.2	1.0437e-07
409.4	1.0397e-07
409.6	1.0357e-07
409.8	1.0318e-07
410.0	1.0278e-07
410.2	1.0239e-07
410.4	1.0199e-07
410.6	1.016e-07
410.8	1.0121e-07
411.0	1.0083e-07
411.2	1.0044e-07
411.4	1.0005e-07
411.6	1.0e-07
411.8	1.0e-07
412.0	1.0e-07
412.2	1.0e-07
412.4	1.0e-07
412.6	1.0e-07
412.8	1.0e-07
413.0	1.0e-07
413.2	1.0e-07
413.4	1.0e-07
413.6	1.0e-07
413.8	1.0e-07
414.0	1.0e-07
414.2	1.0e-07
414.4	1.0e-07
414.6	1.0e-07
414.8	1.0e-07
415.0	1.0e-07
415.2	1.0e-07
415.4	1.0e-07
415.6	1.0e-07
415.8	1.0e-07
416.0	1.0e-07
416.2	1.0e-07
416.4	1.0e-07
416.6	1.0e-07
416.8	1.0e-07
417.0	1.0e-07
417.2	1.0e-07
417.4	1.0e-07
417.6	1.0e-07
417.8	1.0e-07
418.0	1.0e-07
418.2	1.0e-07
418.4	1.0e-07
418.6	1.0e-07
418.8	1.0e-07
419.0	1.0e-07
419.2	1.0e-07
419.4	1.0e-07
419.6	1.0e-07
419.8	1.0e-07
420.0	1.0e-07
420.2	1.0e-07
420.4	1.0e-07
420.6	1.0e-07
420.8	1.0e-07
421.0	1.0e-07
421.2	1.0e-07
421.4	1.0e-07
421.6	1.0e-07
421.8	1.0e-07
422.0	1.0e-07
422.2	1.0e-07
422.4	1.0e-07
422.6	1.0e-07
422.8	1.0e-07
423.0	1.0e-07
423.2	1.0e-07
423.4	1.0e-07
423.6	1.0e-07
423.8	1.0e-07
424.0	1.0e-07
424.2	1.0e-07
424.4	1.0e-07
424.6	1.0e-07
424.8	1.0e-07
425.0	1.0e-07
425.2	1.0e-07
425.4	1.0e-07
425.6	1.0e-07
425.8	1.0e-07
426.0	1.0e-07
426.2	1.0e-07
426.4	1.0e-07
426.6	1.0e-07
426.8	1.0e-07
427.0	1.0e-07
427.2	1.0e-07
427.4	1.0e-07
427.6	1.0e-07
427.8	1.0e-07
428.0	1.0e-07
428.2	1.0e-07
428.4	1.0e-07
428.6	1.0e-07
428.8	1.0e-07
429.0	1.0e-07
429.2	1.0e-07
429.4	1.0e-07
429.6	1.0e-07
429.8	1.0e-07
430.0	1.0e-07
430.2	1.0e-07
430.4	1.0e-07
430.6	1.0e-07
430.8	1.0e-07
431.0	1.0e-07
431.2	1.0e-07
431.4	1.0e-07
431.6	1.0e-07
431.8	1.0e-07
432.0	1.0e-07
432.2	1.0e-07
432.4	1.0e-07
432.6	1.0e-07
432.8	1.0e-07
433.0	1.0e-07
433.2	1.0e-07
433.4	1.0e-07
433.6	1.0e-07
433.8	1.0e-07
434.0	1.0e-07
434.2	1.0e-07
434.4	1.0e-07
434.6	1.0e-07
434.8	1.0e-07
435.0	1.0e-07
435.2	1.0e-07
435.4	1.0e-07
435.6	1.0e-07
435.8	1.0e-07
436.0	1.0e-07
436.2	1.0e-07
436.4	1.0e-07
436.6	1.0e-07
436.8	1.0e-07
437.0	1.0e-07
437.2	1.0e-07
437.4	1.0e-07
437.6	1.0e-07
437.8	1.0e-07
438.0	1.0e-07
438.2	1.0e-07
438.4	1.0e-07
438.6	1.0e-07
438.8	1.0e-07
439.0	1.0e-07
439.2	1.0e-07
439.4	1.0e-07
439.6	1.0e-07
439.8	1.0e-07
440.0	1.0e-07
440.2	1.0e-07
440.4	1.0e-07
440.6	1.0e-07
440.8	1.0e-07
441.0	1.0e-07
441.2	1.0e-07
441.4	1.0e-07
441.6	1.0e-07
441.8	1.0e-07
442.0	1.0e-07
442.2	1.0e-07
442.4	1.0e-07
442.6	1.0e-07
442.8	1.0e-07
443.0	1.0e-07
443.2	1.0e-07
443.4	1.0e-07
443.6	1.0e-07
443.8	1.0e-07
444.0	1.0e-07
444.2	1.0e-07
444.4	1.0e-07
444.6	1.0e-07
444.8	1.0e-07
445.0	1.0e-07
445.2	1.0e-07
445.4	1.0e-07
445.6	1.0e-07
445.8	1.0e-07
446.0	1.0e-07
446.2	1.0e-07
446.4	1.0e-07
446.6	1.0e-07
446.8	1.0e-07
447.0	1.0e-07
447.2	1.0e-07
447.4	1.0e-07
447.6	1.0e-07
447.8	1.0e-07
448.0	1.0e-07
448.2	1.0e-07
448.4	1.0e-07
448.6	1.0e-07
448.8	1.0e-07
449.0	1.0e-07
449.2	1.0e-07
449.4	1.0e-07
449.6	1.0e-07
449.8	1.0e-07
450.0	1.0e-07
450.2	1.0e-07
450.4	1.0e-07
450.6	1.0e-07
450.8	1.0e-07
451.0	1.0e-07
451.2	1.0e-07
451.4	1.0e-07
451.6	1.0e-07
451.8	1.0e-07
452.0	1.0e-07
452.2	1.0e-07
452.4	1.0e-07
452.6	1.0e-07
452.8	1.0e-07
453.0	1.0e-07
453.2	1.0e-07
453.4	1.0e-07
453.6	1.0e-07
453.8	1.0e-07
454.0	1.0e-07
454.2	1.0e-07
454.4	1.0e-07
454.6	1.0e-07
454.8	1.0e-07
455.0	1.0e-07
455.2	1.0e-07
455.4	1.0e-07
455.6	1.0e-07
455.8	1.0e-07
456.0	1.0e-07
456.2	1.0e-07
456.4	1.0e-07
456.6	1.0e-07
456.8	1.0e-07
457.0	1.0e-07
457.2	1.0e-07
457.4	1.0e-07
457.6	1.0e-07
457.8	1.0e-07
458.0	1.0e-07
458.2	1.0e-07
458.4	1.0e-07
458.6	1.0e-07
458.8	1.0e-07
459.0	1.0e-07
459.2	1.0e-07
459.4	1.0e-07
459.6	1.0e-07
459.8	1.0e-07
460.0	1.0e-07
460.2	1.0e-07
460.4	1.0e-07
460.6	1.0e-07
460.8	1.0e-07
461.0	1.0e-07
461.2	1.0e-07
461.4	1.0e-07
461.6	1.0e-07
461.8	1.0e-07
462.0	1.0e-07
462.2	1.0e-07
462.4	1.0e-07
462.6	1.0e-07
462.8	1.0e-07
463.0	1.0e-07
463.2	1.0e-07
463.4	1.0e-07
463.6	1.0271e-07
463.8	1.0686e-07
464.0	1.1117e-07
464.2	1.1566e-07
464.4	1.2034e-07
464.6	1.252e-07
464.8	1.3025e-07
465.0	1.3552e-07
465.2	1.4099e-07
465.4	1.4668e-07
465.6	1.5261e-07
465.8	1.5877e-07
466.0	1.6519e-07
466.2	1.7186e-07
466.4	1.788e-07
466.6	1.8602e-07
466.8	1.9354e-07
467.0	2.0135e-07
467.2	2.0949e-07
467.4	2.1795e-07
467.6	2.2702e-07
467.8	2.389e-07
468.0	2.514e-07
468.2	2.6456e-07
468.4	2.784e-07
468.6	2.9297e-07
468.8	3.083e-07
469.0	3.2443e-07
469.2	3.414e-07
469.4	3.5926e-07
469.6	3.7806e-07
469.8	3.9784e-07
470.0	4.1866e-07
470.2	4.4057e-07
470.4	4.6362e-07
470.6	4.8274e-07
470.8	4.8849e-07
471.0	4.943e-07
471.2	5.0018e-07
471.4	5.0613e-07
471.6	5.1216e-07
471.8	5.1825e-07
472.0	5.2442e-07
472.2	5.3066e-07
472.4	5.3697e-07
472.6	5.4336e-07
472.8	5.4983e-07
473.0	5.5637e-07
473.2	5.6299e-07
473.4	5.6969e-07
473.6	5.7647e-07
473.8	5.8333e-07
474.0	5.9027e-07
474.2	5.973e-07
474.4	6.0238e-07
474.6	6.0691e-07
474.8	6.1147e-07
475.0	6.1606e-07
475.2	6.2069e-07
475.4	6.2535e-07
475.6	6.3005e-07
475.8	6.3478e-07
476.0	6.3955e-07
476.2	6.4435e-07
476.4	6.4919e-07
476.6	6.5407e-07
476.8	6.5898e-07
477.0	6.6393e-07
477.2	6.6892e-07
477.4	6.7395e-07
477.6	6.7901e-07
477.8	6.8411e-07
478.0	6.8895e-07
478.2	6.9302e-07
478.4	6.9712e-07
478.6	7.0124e-07
478.8	7.0539e-07
479.0	7.0956e-07
479.2	7.1375e-07
479.4	7.1797e-07
479.6	7.2222e-07
479.8	7.2649e-07
480.0	7.3078e-07
480.2	7.351e-07
480.4	7.3945e-07
480.6	7.4382e-07
480.8	7.4822e-07
481.0	7.5264e-07
481.2	7.5709e-07
481.4	7.6157e-07
481.6	7.6607e-07
481.8	7.7227e-07
482.0	7.7896e-07
482.2	7.857e-07
482.4	7.925e-07
482.6	7.9936e-07
482.8	8.0628e-07
483.0	8.1326e-07
483.2	8.203e-07
483.4	8.274e-07
483.6	8.3456e-07
483.8	8.4179e-07
484.0	8.4907e-07
484.2	8.5642e-07
484.4	8.6383e-07
484.6	8.7131e-07
484.8	8.7885e-07
485.0	8.8646e-07
485.2	8.9413e-07
485.4	8.6387e-07
485.6	7.6325e-07
485.8	6.7435e-07
486.0	5.9581e-07
486.2	5.2641e-07
486.4	4.651e-07
486.6	4.1092e-07
486.8	3.6306e-07
487.0	3.2077e-07
487.2	2.8341e-07
487.4	2.504e-07
487.6	2.2123e-07
487.8	1.9547e-07
488.0	1.727e-07
488.2	1.5258e-07
488.4	1.3481e-07
488.6	1.1911e-07
488.8	1.0524e-07
489.0	1.0311e-07
489.2	1.063e-07
489.4	1.0958e-07
489.6	1.1297e-07
489.8	1.1647e-07
490.0	1.2007e-07
490.2	1.2379e-07
490.4	1.2762e-07
490.6	1.3157e-07
490.8	1.3564e-07
491.0	1.3983e-07
491.2	1.4416e-07
491.4	1.4862e-07
491.6	1.5322e-07
491.8	1.5796e-07
492.0	1.6285e-07
492.2	1.6789e-07
492.4	1.7298e-07
492.6	1.7158e-07
492.8	1.702e-07
493.0	1.6882e-07
493.2	1.6746e-07
493.4	1.661e-07
493.6	1.6476e-07
493.8	1.6343e-07
494.0	1.6211e-07
494.2	1.608e-07
494.4	1.595e-07
494.6	1.5821e-07
494.8	1.5693e-07
495.0	1.5566e-07
495.2	1.5441e-07
495.4	1.5316e-07
495.6	1.5192e-07
495.8	1.5069e-07
496.0	1.4948e-07
496.2	1.4827e-07
496.4	1.4707e-07
496.6	1.4588e-07
496.8	1.447e-07
497.0	1.4353e-07
497.2	1.4237e-07
497.4	1.4121e-07
497.6	1.3927e-07
497.8	1.3736e-07
498.0	1.3547e-07
498.2	1.3361e-07
498.4	1.3178e-07
498.6	1.2997e-07
498.8	1.2819e-07
499.0	1.2643e-07
499.2	1.2469e-07
499.4	1.2298e-07
499.6	1.2129e-07
499.8	1.1963e-07
500.0	1.1799e-07
500.2	1.1637e-07
500.4	1.1477e-07
500.6	1.132e-07
500.8	1.1164e-07
501.0	1.1011e-07
501.2	1.086e-07
501.4	1.0711e-07
501.6	1.0564e-07
501.8	1.0419e-07
502.0	1.0276e-07
502.2	1.0135e-07
502.4	1.0e-07
502.6	1.0e-07
502.8	1.0e-07
503.0	1.0e-07
503.2	1.0e-07
503.4	1.0e-07
503.6	1.0e-07
503.8	1.0e-07
504.0	1.0e-07
504.2	1.0e-07
504.4	1.0e-07
504.6	1.0e-07
504.8	1.0e-07
505.0	1.0e-07
505.2	1.0e-07
505.4	1.0e-07
505.6	1.0e-07
505.8	1.0e-07
506.0	1.0e-07
506.2	1.0e-07
506.4	1.0e-07
506.6	1.0e-07
506.8	1.0e-07
507.0	1.0e-07
507.2	1.0e-07
507.4	1.0e-07
507.6	1.0e-07
507.8	1.0e-07
508.0	1.0e-07
508.2	1.0e-07
508.4	1.0e-07
508.6	1.0e-07
508.8	1.0e-07
