Typical Measured Spectrum of Semrock FF01-589/18 Optical Filter	
For wavelengths between 320 and 1120 nm, values near or below 3e-7 (Optical Density 6.5) are measurement noise limited.
For wavelengths < 320 nm and > 1120 nm, values near or below 3e-6 (Optical Density 5.5) are measurement noise limited. 
Data format:  Wavelength (nm) <tab> Transmission (0 to 1)
265.0	1.3055e-05
265.2	1.1105e-05
265.4	9.4466e-06
265.6	8.0357e-06
265.8	6.8356e-06
266.0	5.8147e-06
266.2	4.9463e-06
266.4	4.2076e-06
266.6	3.5792e-06
266.8	3.0447e-06
267.0	2.59e-06
267.2	2.2032e-06
267.4	1.8741e-06
267.6	1.5942e-06
267.8	1.3561e-06
268.0	1.1536e-06
268.2	9.8131e-07
268.4	8.3476e-07
268.6	7.1009e-07
268.8	6.0404e-07
269.0	5.1383e-07
269.2	4.3709e-07
269.4	3.9128e-07
269.6	3.8764e-07
269.8	3.8402e-07
270.0	3.8044e-07
270.2	3.769e-07
270.4	3.7338e-07
270.6	3.699e-07
270.8	3.6645e-07
271.0	3.6304e-07
271.2	3.5965e-07
271.4	3.563e-07
271.6	3.5298e-07
271.8	3.4969e-07
272.0	3.4643e-07
272.2	3.432e-07
272.4	3.4e-07
272.6	3.3683e-07
272.8	3.3369e-07
273.0	3.3058e-07
273.2	3.275e-07
273.4	3.2445e-07
273.6	3.2142e-07
273.8	3.1843e-07
274.0	3.1757e-07
274.2	6.1357e-07
274.4	1.1854e-06
274.6	2.2903e-06
274.8	4.4249e-06
275.0	8.5491e-06
275.2	8.8646e-06
275.4	9.1917e-06
275.6	9.5308e-06
275.8	9.8825e-06
276.0	1.0247e-05
276.2	1.0625e-05
276.4	1.1017e-05
276.6	1.1424e-05
276.8	1.1845e-05
277.0	1.2282e-05
277.2	1.2735e-05
277.4	1.3205e-05
277.6	1.3693e-05
277.8	1.4198e-05
278.0	1.2175e-05
278.2	1.0135e-05
278.4	8.4367e-06
278.6	7.0231e-06
278.8	5.8464e-06
279.0	4.8669e-06
279.2	4.0514e-06
279.4	3.3726e-06
279.6	2.8075e-06
279.8	2.3371e-06
280.0	1.9455e-06
280.2	1.6196e-06
280.4	1.3482e-06
280.6	1.1223e-06
280.8	9.3427e-07
281.0	7.7773e-07
281.2	6.4742e-07
281.4	5.3895e-07
281.6	4.4865e-07
281.8	3.7348e-07
282.0	3.109e-07
282.2	2.5881e-07
282.4	2.1545e-07
282.6	1.9671e-07
282.8	1.9372e-07
283.0	1.9077e-07
283.2	1.8787e-07
283.4	1.8501e-07
283.6	1.822e-07
283.8	1.7942e-07
284.0	1.7669e-07
284.2	1.74e-07
284.4	1.7136e-07
284.6	1.6875e-07
284.8	1.6618e-07
285.0	1.6365e-07
285.2	1.6124e-07
285.4	1.5886e-07
285.6	1.5652e-07
285.8	1.5421e-07
286.0	1.5193e-07
286.2	1.4969e-07
286.4	1.4749e-07
286.6	1.4531e-07
286.8	1.4317e-07
287.0	1.4106e-07
287.2	1.3898e-07
287.4	1.3693e-07
287.6	1.3491e-07
287.8	1.3292e-07
288.0	1.3101e-07
288.2	1.2914e-07
288.4	1.273e-07
288.6	1.2548e-07
288.8	1.2369e-07
289.0	1.2192e-07
289.2	1.2018e-07
289.4	1.1846e-07
289.6	1.1677e-07
289.8	1.151e-07
290.0	1.1346e-07
290.2	1.1183e-07
290.4	1.1024e-07
290.6	1.0866e-07
290.8	1.0711e-07
291.0	1.0558e-07
291.2	1.0407e-07
291.4	1.0258e-07
291.6	1.0112e-07
291.8	9.9674e-08
292.0	9.825e-08
292.2	9.6847e-08
292.4	9.5463e-08
292.6	9.3839e-08
292.8	9.2092e-08
293.0	9.0377e-08
293.2	8.8695e-08
293.4	8.7044e-08
293.6	8.5423e-08
293.8	8.3833e-08
294.0	8.2273e-08
294.2	8.0741e-08
294.4	7.9238e-08
294.6	7.7763e-08
294.8	7.6315e-08
295.0	7.4895e-08
295.2	8.7427e-08
295.4	1.0206e-07
295.6	1.1914e-07
295.8	1.3036e-07
296.0	1.4108e-07
296.2	1.5269e-07
296.4	1.6525e-07
296.6	1.7884e-07
296.8	1.9355e-07
297.0	2.0947e-07
297.2	2.267e-07
297.4	2.4535e-07
297.6	2.6554e-07
297.8	2.8738e-07
298.0	3.1102e-07
298.2	3.366e-07
298.4	3.6429e-07
298.6	3.9426e-07
298.8	4.2669e-07
299.0	4.6179e-07
299.2	4.9977e-07
299.4	5.4088e-07
299.6	5.8538e-07
299.8	6.3353e-07
300.0	6.8564e-07
300.2	7.4205e-07
300.4	7.6363e-07
300.6	7.5411e-07
300.8	7.4471e-07
301.0	7.3542e-07
301.2	7.2625e-07
301.4	7.172e-07
301.6	7.0825e-07
301.8	6.9942e-07
302.0	6.907e-07
302.2	6.8209e-07
302.4	6.7359e-07
302.6	6.6519e-07
302.8	6.5689e-07
303.0	6.487e-07
303.2	6.4061e-07
303.4	6.3263e-07
303.6	6.2474e-07
303.8	6.1695e-07
304.0	6.0926e-07
304.2	6.0166e-07
304.4	5.9416e-07
304.6	5.8675e-07
304.8	5.7943e-07
305.0	5.749e-07
305.2	5.8859e-07
305.4	6.0261e-07
305.6	6.1696e-07
305.8	6.3166e-07
306.0	6.467e-07
306.2	6.621e-07
306.4	6.7787e-07
306.6	6.9402e-07
306.8	7.1055e-07
307.0	7.0615e-07
307.2	6.3701e-07
307.4	5.7465e-07
307.6	5.1839e-07
307.8	4.6764e-07
308.0	4.2185e-07
308.2	3.8055e-07
308.4	3.4329e-07
308.6	3.0968e-07
308.8	2.7936e-07
309.0	2.5201e-07
309.2	2.2734e-07
309.4	2.0508e-07
309.6	1.85e-07
309.8	1.6689e-07
310.0	1.5055e-07
310.2	1.3581e-07
310.4	1.2252e-07
310.6	1.1052e-07
310.8	9.9701e-08
311.0	8.994e-08
311.2	8.1134e-08
311.4	7.3191e-08
311.6	6.6025e-08
311.8	6.5206e-08
312.0	6.4941e-08
312.2	6.4677e-08
312.4	6.4414e-08
312.6	6.4152e-08
312.8	6.3891e-08
313.0	6.3631e-08
313.2	6.3372e-08
313.4	6.3114e-08
313.6	6.2857e-08
313.8	6.2602e-08
314.0	6.2347e-08
314.2	6.2093e-08
314.4	6.1841e-08
314.6	6.1589e-08
314.8	6.1339e-08
315.0	6.1089e-08
315.2	6.0841e-08
315.4	6.0593e-08
315.6	6.0347e-08
315.8	6.0101e-08
316.0	5.9857e-08
316.2	5.9613e-08
316.4	5.9429e-08
316.6	5.9282e-08
316.8	5.9136e-08
317.0	5.899e-08
317.2	5.8845e-08
317.4	5.8699e-08
317.6	5.8554e-08
317.8	5.841e-08
318.0	5.8266e-08
318.2	5.8122e-08
318.4	5.7979e-08
318.6	5.7836e-08
318.8	5.7693e-08
319.0	5.755e-08
319.2	5.7408e-08
319.4	5.7267e-08
319.6	5.7125e-08
319.8	5.6984e-08
320.0	5.6844e-08
320.2	5.6703e-08
320.4	5.6564e-08
320.6	5.6424e-08
320.8	5.6285e-08
321.0	5.6084e-08
321.2	5.5751e-08
321.4	5.5421e-08
321.6	5.5093e-08
321.8	5.4767e-08
322.0	5.4443e-08
322.2	5.412e-08
322.4	5.38e-08
322.6	5.3481e-08
322.8	5.3165e-08
323.0	5.285e-08
323.2	5.2537e-08
323.4	5.2226e-08
323.6	5.1916e-08
323.8	5.1609e-08
324.0	5.1303e-08
324.2	5.1e-08
324.4	5.0698e-08
324.6	5.0398e-08
324.8	5.0099e-08
325.0	4.9802e-08
325.2	4.9508e-08
325.4	4.9214e-08
325.6	4.9158e-08
325.8	5.6044e-08
326.0	6.3893e-08
326.2	7.2843e-08
326.4	8.3046e-08
326.6	9.4678e-08
326.8	1.0794e-07
327.0	1.2306e-07
327.2	1.4029e-07
327.4	1.5994e-07
327.6	1.8235e-07
327.8	2.0789e-07
328.0	2.3701e-07
328.2	2.702e-07
328.4	3.0805e-07
328.6	3.512e-07
328.8	4.0039e-07
329.0	4.5647e-07
329.2	5.204e-07
329.4	5.9329e-07
329.6	6.7639e-07
329.8	7.7114e-07
330.0	8.7915e-07
330.2	1.0023e-06
330.4	1.0005e-06
330.6	9.5992e-07
330.8	9.2096e-07
331.0	8.8358e-07
331.2	8.4771e-07
331.4	8.1331e-07
331.6	7.803e-07
331.8	7.4863e-07
332.0	7.1824e-07
332.2	6.8909e-07
332.4	6.6112e-07
332.6	6.3429e-07
332.8	6.0854e-07
333.0	5.8384e-07
333.2	5.6014e-07
333.4	5.3741e-07
333.6	5.156e-07
333.8	4.9467e-07
334.0	4.7459e-07
334.2	4.5533e-07
334.4	4.3685e-07
334.6	4.1912e-07
334.8	4.0211e-07
335.0	3.9217e-07
335.2	4.0127e-07
335.4	4.1059e-07
335.6	4.2012e-07
335.8	4.2987e-07
336.0	4.3985e-07
336.2	4.5006e-07
336.4	4.605e-07
336.6	4.7119e-07
336.8	4.8213e-07
337.0	4.703e-07
337.2	4.135e-07
337.4	3.6357e-07
337.6	3.1966e-07
337.8	2.8105e-07
338.0	2.4711e-07
338.2	2.1726e-07
338.4	1.9102e-07
338.6	1.6795e-07
338.8	1.4767e-07
339.0	1.2984e-07
339.2	1.1416e-07
339.4	1.0037e-07
339.6	8.8247e-08
339.8	7.7589e-08
340.0	6.8219e-08
340.2	5.998e-08
340.4	5.2736e-08
340.6	4.6367e-08
340.8	4.0767e-08
341.0	3.5843e-08
341.2	3.1515e-08
341.4	2.7709e-08
341.6	2.4541e-08
341.8	2.6593e-08
342.0	2.8816e-08
342.2	3.1225e-08
342.4	3.3836e-08
342.6	3.6665e-08
342.8	3.973e-08
343.0	4.3052e-08
343.2	4.6651e-08
343.4	5.0552e-08
343.6	5.4778e-08
343.8	5.9358e-08
344.0	6.4321e-08
344.2	6.9699e-08
344.4	7.5526e-08
344.6	8.184e-08
344.8	8.8683e-08
345.0	9.6097e-08
345.2	1.0413e-07
345.4	1.1284e-07
345.6	1.2227e-07
345.8	1.3249e-07
346.0	1.4357e-07
346.2	1.5558e-07
346.4	1.4899e-07
346.6	1.3738e-07
346.8	1.2666e-07
347.0	1.1679e-07
347.2	1.0768e-07
347.4	9.9285e-08
347.6	9.1544e-08
347.8	8.4406e-08
348.0	7.7825e-08
348.2	7.1756e-08
348.4	6.6161e-08
348.6	6.1003e-08
348.8	5.6246e-08
349.0	5.1861e-08
349.2	4.7817e-08
349.4	4.4088e-08
349.6	4.0651e-08
349.8	3.7481e-08
350.0	3.4559e-08
350.2	3.1864e-08
350.4	2.938e-08
350.6	2.7089e-08
350.8	2.4977e-08
351.0	2.4004e-08
351.2	2.4027e-08
351.4	2.4049e-08
351.6	2.4072e-08
351.8	2.4095e-08
352.0	2.4117e-08
352.2	2.414e-08
352.4	2.4163e-08
352.6	2.4186e-08
352.8	2.4209e-08
353.0	2.4231e-08
353.2	2.4254e-08
353.4	2.4277e-08
353.6	2.43e-08
353.8	2.4323e-08
354.0	2.4346e-08
354.2	2.4369e-08
354.4	2.4392e-08
354.6	2.4415e-08
354.8	2.4438e-08
355.0	2.4461e-08
355.2	2.4484e-08
355.4	2.4507e-08
355.6	2.4561e-08
355.8	2.4706e-08
356.0	2.4851e-08
356.2	2.4998e-08
356.4	2.5145e-08
356.6	2.5293e-08
356.8	2.5442e-08
357.0	2.5592e-08
357.2	2.5742e-08
357.4	2.5894e-08
357.6	2.6047e-08
357.8	2.62e-08
358.0	2.6354e-08
358.2	2.6509e-08
358.4	2.6666e-08
358.6	2.6823e-08
358.8	2.6981e-08
359.0	2.7139e-08
359.2	2.7299e-08
359.4	2.746e-08
359.6	2.7622e-08
359.8	2.7784e-08
360.0	2.7948e-08
360.2	2.8152e-08
360.4	2.994e-08
360.6	3.1841e-08
360.8	3.3864e-08
361.0	3.6015e-08
361.2	3.8302e-08
361.4	4.0735e-08
361.6	4.3322e-08
361.8	4.6074e-08
362.0	4.9e-08
362.2	5.2113e-08
362.4	5.5423e-08
362.6	5.8943e-08
362.8	6.2687e-08
363.0	6.6668e-08
363.2	7.0903e-08
363.4	7.5406e-08
363.6	8.0195e-08
363.8	8.5289e-08
364.0	9.0706e-08
364.2	9.6467e-08
364.4	1.0259e-07
364.6	1.0911e-07
364.8	1.1604e-07
365.0	1.2209e-07
365.2	1.2638e-07
365.4	1.3083e-07
365.6	1.3543e-07
365.8	1.4019e-07
366.0	1.4513e-07
366.2	1.5023e-07
366.4	1.5552e-07
366.6	1.6099e-07
366.8	1.6665e-07
367.0	1.7252e-07
367.2	1.7859e-07
367.4	1.8487e-07
367.6	1.9137e-07
367.8	1.9811e-07
368.0	2.0507e-07
368.2	2.1229e-07
368.4	2.0926e-07
368.6	1.8978e-07
368.8	1.7211e-07
369.0	1.5609e-07
369.2	1.4156e-07
369.4	1.2838e-07
369.6	1.1642e-07
369.8	1.0559e-07
370.0	9.5756e-08
370.2	8.6841e-08
370.4	7.8756e-08
370.6	7.1424e-08
370.8	6.4775e-08
371.0	5.8744e-08
371.2	5.3275e-08
371.4	4.8315e-08
371.6	4.3817e-08
371.8	3.9738e-08
372.0	3.6038e-08
372.2	3.2683e-08
372.4	2.9641e-08
372.6	2.6881e-08
372.8	2.4378e-08
373.0	2.2317e-08
373.2	2.2228e-08
373.4	2.2139e-08
373.6	2.2051e-08
373.8	2.1963e-08
374.0	2.1875e-08
374.2	2.1788e-08
374.4	2.1701e-08
374.6	2.1614e-08
374.8	2.1528e-08
375.0	2.1442e-08
375.2	2.1356e-08
375.4	2.1271e-08
375.6	2.1186e-08
375.8	2.1101e-08
376.0	2.1017e-08
376.2	2.0933e-08
376.4	2.0849e-08
376.6	2.0766e-08
376.8	2.0683e-08
377.0	2.0601e-08
377.2	2.0518e-08
377.4	2.0437e-08
377.6	2.0355e-08
377.8	2.2483e-08
378.0	2.5328e-08
378.2	2.8533e-08
378.4	3.2143e-08
378.6	3.621e-08
378.8	4.0792e-08
379.0	4.5953e-08
379.2	5.1767e-08
379.4	5.8318e-08
379.6	6.5697e-08
379.8	7.4009e-08
380.0	8.3374e-08
380.2	9.3923e-08
380.4	1.0581e-07
380.6	1.192e-07
380.8	1.3428e-07
381.0	1.5127e-07
381.2	1.7041e-07
381.4	1.9197e-07
381.6	2.1626e-07
381.8	2.4362e-07
382.0	2.7445e-07
382.2	3.0917e-07
382.4	3.003e-07
382.6	2.6368e-07
382.8	2.3153e-07
383.0	2.0329e-07
383.2	1.785e-07
383.4	1.5674e-07
383.6	1.3762e-07
383.8	1.2084e-07
384.0	1.0611e-07
384.2	9.3167e-08
384.4	8.1806e-08
384.6	7.183e-08
384.8	6.3071e-08
385.0	5.538e-08
385.2	4.8627e-08
385.4	4.2697e-08
385.6	3.749e-08
385.8	3.2919e-08
386.0	2.8904e-08
386.2	2.538e-08
386.4	2.2285e-08
386.6	1.9567e-08
386.8	1.7181e-08
387.0	1.5775e-08
387.2	1.5682e-08
387.4	1.5589e-08
387.6	1.5496e-08
387.8	1.5404e-08
388.0	1.5313e-08
388.2	1.5222e-08
388.4	1.5132e-08
388.6	1.5042e-08
388.8	1.4953e-08
389.0	1.4864e-08
389.2	1.4776e-08
389.4	1.4688e-08
389.6	1.4601e-08
389.8	1.4514e-08
390.0	1.4428e-08
390.2	1.4343e-08
390.4	1.4257e-08
390.6	1.4173e-08
390.8	1.4089e-08
391.0	1.4005e-08
391.2	1.3922e-08
391.4	1.3839e-08
391.6	1.5736e-08
391.8	4.2324e-08
392.0	1.1384e-07
392.2	7.1185e-08
392.4	4.4514e-08
392.6	2.7836e-08
392.8	1.7406e-08
393.0	1.3941e-08
393.2	1.3787e-08
393.4	1.3634e-08
393.6	1.3483e-08
393.8	1.3334e-08
394.0	1.3186e-08
394.2	1.304e-08
394.4	1.2896e-08
394.6	1.2753e-08
394.8	1.2612e-08
395.0	1.2472e-08
395.2	1.2334e-08
395.4	1.2197e-08
395.6	1.2062e-08
395.8	1.1929e-08
396.0	1.1797e-08
396.2	1.1666e-08
396.4	1.1537e-08
396.6	1.1409e-08
396.8	1.2767e-08
397.0	1.4351e-08
397.2	1.6131e-08
397.4	1.8133e-08
397.6	2.0382e-08
397.8	2.2911e-08
398.0	2.5753e-08
398.2	2.8948e-08
398.4	3.254e-08
398.6	3.6577e-08
398.8	4.1115e-08
399.0	4.6215e-08
399.2	5.1949e-08
399.4	5.8394e-08
399.6	6.5638e-08
399.8	7.3781e-08
400.0	8.2935e-08
400.2	9.3224e-08
400.4	1.0e-07
400.6	1.0e-07
400.8	1.0e-07
401.0	1.0e-07
401.2	1.0e-07
401.4	1.0e-07
401.6	1.0e-07
401.8	1.0e-07
402.0	1.0e-07
402.2	1.0e-07
402.4	1.0e-07
402.6	1.0e-07
402.8	1.0e-07
403.0	1.0e-07
403.2	1.0e-07
403.4	1.0e-07
403.6	1.0e-07
403.8	1.0e-07
404.0	1.0e-07
404.2	1.0e-07
404.4	1.0e-07
404.6	1.0e-07
404.8	1.0e-07
405.0	1.0e-07
405.2	1.0e-07
405.4	1.0e-07
405.6	1.0e-07
405.8	1.0e-07
406.0	1.0e-07
406.2	1.0e-07
406.4	1.0e-07
406.6	1.0e-07
406.8	1.0e-07
407.0	1.0e-07
407.2	1.0e-07
407.4	1.0e-07
407.6	1.0e-07
407.8	9.9197e-08
408.0	9.6566e-08
408.2	9.4004e-08
408.4	9.1511e-08
408.6	8.9084e-08
408.8	8.6721e-08
409.0	8.4421e-08
409.2	8.2181e-08
409.4	8.0002e-08
409.6	7.788e-08
409.8	7.5814e-08
410.0	7.3803e-08
410.2	7.1845e-08
410.4	6.994e-08
410.6	6.8085e-08
410.8	6.6279e-08
411.0	6.4521e-08
411.2	6.2809e-08
411.4	6.1143e-08
411.6	6.2022e-08
411.8	6.3712e-08
412.0	6.5449e-08
412.2	6.7234e-08
412.4	6.9066e-08
412.6	7.0949e-08
412.8	7.2884e-08
413.0	7.487e-08
413.2	7.6912e-08
413.4	7.9008e-08
413.6	8.1162e-08
413.8	8.3375e-08
414.0	8.5648e-08
414.2	8.7983e-08
414.4	9.0381e-08
414.6	9.2845e-08
414.8	9.5376e-08
415.0	9.7977e-08
415.2	9.7568e-08
415.4	8.8054e-08
415.6	7.9467e-08
415.8	7.1718e-08
416.0	6.4725e-08
416.2	5.8413e-08
416.4	5.2717e-08
416.6	4.7576e-08
416.8	4.2937e-08
417.0	3.875e-08
417.2	3.4972e-08
417.4	3.1561e-08
417.6	2.8484e-08
417.8	2.5706e-08
418.0	2.32e-08
418.2	2.0937e-08
418.4	1.8896e-08
418.6	1.7053e-08
418.8	1.539e-08
419.0	1.6134e-08
419.2	1.7878e-08
419.4	1.981e-08
419.6	2.1951e-08
419.8	2.4324e-08
420.0	2.6953e-08
420.2	2.9866e-08
420.4	3.3094e-08
420.6	3.6671e-08
420.8	4.0634e-08
421.0	4.5026e-08
421.2	4.9892e-08
421.4	5.5284e-08
421.6	6.1259e-08
421.8	6.788e-08
422.0	7.5217e-08
422.2	8.3346e-08
422.4	9.2354e-08
422.6	1.0036e-07
422.8	1.0197e-07
423.0	1.0362e-07
423.2	1.0528e-07
423.4	1.0698e-07
423.6	1.087e-07
423.8	1.1045e-07
424.0	1.1223e-07
424.2	1.1403e-07
424.4	1.1587e-07
424.6	1.1773e-07
424.8	1.1962e-07
425.0	1.2155e-07
425.2	1.2351e-07
425.4	1.2549e-07
425.6	1.2751e-07
425.8	1.2956e-07
426.0	1.3165e-07
426.2	1.3377e-07
426.4	1.5568e-07
426.6	1.9052e-07
426.8	2.3314e-07
427.0	2.8531e-07
427.2	2.7084e-07
427.4	2.571e-07
427.6	2.4406e-07
427.8	2.3168e-07
428.0	2.1993e-07
428.2	2.0877e-07
428.4	1.9818e-07
428.6	1.8813e-07
428.8	1.7858e-07
429.0	1.6953e-07
429.2	1.6093e-07
429.4	1.5276e-07
429.6	1.4501e-07
429.8	1.3766e-07
430.0	1.3068e-07
430.2	1.2437e-07
430.4	1.2192e-07
430.6	1.1952e-07
430.8	1.1717e-07
431.0	1.1487e-07
431.2	1.1261e-07
431.4	1.104e-07
431.6	1.0822e-07
431.8	1.061e-07
432.0	1.0401e-07
432.2	1.0196e-07
432.4	9.9959e-08
432.6	9.7993e-08
432.8	9.6066e-08
433.0	9.4177e-08
433.2	9.2325e-08
433.4	9.0509e-08
433.6	8.8729e-08
433.8	8.6984e-08
434.0	8.2863e-08
434.2	7.7032e-08
434.4	7.1611e-08
434.6	6.6572e-08
434.8	6.1887e-08
435.0	5.7532e-08
435.2	5.3483e-08
435.4	4.972e-08
435.6	4.6221e-08
435.8	4.2968e-08
436.0	3.9944e-08
436.2	3.7134e-08
436.4	3.452e-08
436.6	3.2091e-08
436.8	2.9833e-08
437.0	2.7734e-08
437.2	2.5782e-08
437.4	2.3968e-08
437.6	2.2298e-08
437.8	2.4181e-08
438.0	2.6222e-08
438.2	2.8436e-08
438.4	3.0837e-08
438.6	3.344e-08
438.8	3.6264e-08
439.0	3.9325e-08
439.2	4.2645e-08
439.4	4.6246e-08
439.6	5.015e-08
439.8	5.4384e-08
440.0	5.8975e-08
440.2	6.3954e-08
440.4	6.9354e-08
440.6	7.5209e-08
440.8	8.1559e-08
441.0	8.8445e-08
441.2	9.5912e-08
441.4	1.0e-07
441.6	1.0e-07
441.8	1.0e-07
442.0	1.0e-07
442.2	1.0e-07
442.4	1.0e-07
442.6	1.0e-07
442.8	1.0e-07
443.0	1.0e-07
443.2	1.0e-07
443.4	1.0e-07
443.6	1.0e-07
443.8	1.0e-07
444.0	1.0e-07
444.2	1.0e-07
444.4	1.0e-07
444.6	1.0e-07
444.8	1.0e-07
445.0	1.0e-07
445.2	1.0e-07
445.4	1.0e-07
445.6	1.0e-07
445.8	1.0e-07
446.0	1.0e-07
446.2	1.0e-07
446.4	1.0e-07
446.6	1.0e-07
446.8	1.0e-07
447.0	1.0e-07
447.2	1.0e-07
447.4	1.0e-07
447.6	1.0e-07
447.8	1.0e-07
448.0	1.0e-07
448.2	1.0e-07
448.4	1.0e-07
448.6	1.0e-07
448.8	1.0e-07
449.0	1.0e-07
449.2	1.0e-07
449.4	1.0e-07
449.6	1.0e-07
449.8	1.0e-07
450.0	1.0e-07
450.2	1.0e-07
450.4	1.0e-07
450.6	1.0e-07
450.8	1.0e-07
451.0	1.0e-07
451.2	1.0e-07
451.4	1.0e-07
451.6	1.0e-07
451.8	1.0e-07
452.0	1.0e-07
452.2	1.0e-07
452.4	1.0e-07
452.6	9.1384e-08
452.8	8.3357e-08
453.0	7.6035e-08
453.2	6.9356e-08
453.4	6.3264e-08
453.6	5.7707e-08
453.8	5.2638e-08
454.0	4.8014e-08
454.2	4.3796e-08
454.4	3.9949e-08
454.6	3.644e-08
454.8	3.3239e-08
455.0	3.032e-08
455.2	2.7656e-08
455.4	2.5227e-08
455.6	2.3011e-08
455.8	2.099e-08
456.0	1.9146e-08
456.2	1.9129e-08
456.4	2.0973e-08
456.6	2.2994e-08
456.8	2.521e-08
457.0	2.764e-08
457.2	3.0304e-08
457.4	3.3225e-08
457.6	3.6427e-08
457.8	3.9938e-08
458.0	4.3787e-08
458.2	4.8007e-08
458.4	5.2634e-08
458.6	5.7707e-08
458.8	6.3269e-08
459.0	6.9367e-08
459.2	7.6053e-08
459.4	8.3383e-08
459.6	9.1419e-08
459.8	9.972e-08
460.0	8.9132e-08
460.2	7.9668e-08
460.4	7.1208e-08
460.6	6.3648e-08
460.8	5.6889e-08
461.0	5.0849e-08
461.2	4.545e-08
461.4	4.0624e-08
461.6	3.6311e-08
461.8	3.2455e-08
462.0	2.9009e-08
462.2	2.5929e-08
462.4	2.3176e-08
462.6	2.0715e-08
462.8	1.8515e-08
463.0	1.6549e-08
463.2	1.4792e-08
463.4	1.3222e-08
463.6	1.3416e-08
463.8	1.5011e-08
464.0	1.6795e-08
464.2	1.8792e-08
464.4	2.1025e-08
464.6	2.3524e-08
464.8	2.632e-08
465.0	2.9449e-08
465.2	3.2949e-08
465.4	3.6866e-08
465.6	4.1248e-08
465.8	4.615e-08
466.0	5.1636e-08
466.2	5.7773e-08
466.4	6.464e-08
466.6	7.2324e-08
466.8	8.092e-08
467.0	9.0538e-08
467.2	1.0382e-07
467.4	1.4388e-07
467.6	1.9938e-07
467.8	2.7631e-07
468.0	3.829e-07
468.2	3.8216e-07
468.4	3.8142e-07
468.6	3.8068e-07
468.8	3.7994e-07
469.0	3.792e-07
469.2	3.7846e-07
469.4	3.7773e-07
469.6	3.77e-07
469.8	3.7627e-07
470.0	3.7553e-07
470.2	3.7481e-07
470.4	3.7408e-07
470.6	3.7373e-07
470.8	3.7812e-07
471.0	3.8256e-07
471.2	3.8705e-07
471.4	3.916e-07
471.6	3.962e-07
471.8	4.0085e-07
472.0	4.0555e-07
472.2	4.1032e-07
472.4	4.1513e-07
472.6	4.2001e-07
472.8	4.2494e-07
473.0	4.2993e-07
473.2	4.3498e-07
473.4	4.4008e-07
473.6	4.4525e-07
473.8	4.5048e-07
474.0	4.5577e-07
474.2	4.6112e-07
474.4	4.6535e-07
474.6	4.688e-07
474.8	4.7228e-07
475.0	4.7578e-07
475.2	4.793e-07
475.4	4.8285e-07
475.6	4.8643e-07
475.8	4.9003e-07
476.0	4.9367e-07
476.2	4.9732e-07
476.4	5.0101e-07
476.6	5.0472e-07
476.8	5.0846e-07
477.0	5.1223e-07
477.2	5.1602e-07
477.4	5.1985e-07
477.6	5.237e-07
477.8	5.2758e-07
478.0	5.3142e-07
478.2	5.3471e-07
478.4	5.3802e-07
478.6	5.4136e-07
478.8	5.4471e-07
479.0	5.4809e-07
479.2	5.5149e-07
479.4	5.5491e-07
479.6	5.5835e-07
479.8	5.6181e-07
480.0	5.6529e-07
480.2	5.6879e-07
480.4	5.7232e-07
480.6	5.7587e-07
480.8	5.7944e-07
481.0	5.8303e-07
481.2	5.8664e-07
481.4	5.9028e-07
481.6	5.9394e-07
481.8	5.9969e-07
482.0	6.0664e-07
482.2	6.1368e-07
482.4	6.208e-07
482.6	6.28e-07
482.8	6.3529e-07
483.0	6.4266e-07
483.2	6.5011e-07
483.4	6.5765e-07
483.6	6.6528e-07
483.8	6.73e-07
484.0	6.8081e-07
484.2	6.887e-07
484.4	6.9669e-07
484.6	7.0477e-07
484.8	7.1295e-07
485.0	7.2122e-07
485.2	7.2958e-07
485.4	7.3767e-07
485.6	7.4424e-07
485.8	7.5086e-07
486.0	7.5755e-07
486.2	7.6429e-07
486.4	7.711e-07
486.6	7.7796e-07
486.8	7.8488e-07
487.0	7.9187e-07
487.2	7.9892e-07
487.4	8.0603e-07
487.6	8.1321e-07
487.8	8.2044e-07
488.0	8.2775e-07
488.2	8.3512e-07
488.4	8.4255e-07
488.6	8.5005e-07
488.8	8.5762e-07
489.0	8.6525e-07
489.2	8.7515e-07
489.4	8.8591e-07
489.6	8.9682e-07
489.8	9.0785e-07
490.0	9.1902e-07
490.2	9.3033e-07
490.4	9.4178e-07
490.6	9.5337e-07
490.8	9.651e-07
491.0	9.7698e-07
491.2	9.89e-07
491.4	1.0012e-06
491.6	1.0135e-06
491.8	1.026e-06
492.0	1.0386e-06
492.2	1.0514e-06
492.4	1.0643e-06
492.6	1.0774e-06
492.8	1.0904e-06
493.0	1.103e-06
493.2	1.1156e-06
493.4	1.1285e-06
493.6	1.1415e-06
493.8	1.1546e-06
494.0	1.1679e-06
494.2	1.1814e-06
494.4	1.195e-06
494.6	1.2087e-06
494.8	1.2226e-06
495.0	1.2367e-06
495.2	1.2509e-06
495.4	1.2653e-06
495.6	1.2799e-06
495.8	1.2946e-06
496.0	1.3095e-06
496.2	1.3246e-06
496.4	1.3398e-06
496.6	1.2283e-06
496.8	1.111e-06
497.0	1.0049e-06
497.2	9.0899e-07
497.4	8.222e-07
497.6	7.437e-07
497.8	6.7269e-07
498.0	6.0846e-07
498.2	5.5037e-07
498.4	4.9782e-07
498.6	4.5029e-07
498.8	4.073e-07
499.0	3.6841e-07
499.2	3.3323e-07
499.4	3.0142e-07
499.6	2.7264e-07
499.8	2.4661e-07
500.0	2.2306e-07
500.2	2.0177e-07
500.4	1.825e-07
