Typical Measured Spectrum of Semrock FF01-710/40 Optical Filter	
For wavelengths between 320 and 1120 nm, values near or below 3e-7 (Optical Density 6.5) are measurement noise limited.
For wavelengths < 320 nm and > 1120 nm, values near or below 3e-6 (Optical Density 5.5) are measurement noise limited. 
Data format:  Wavelength (nm) <tab> Transmission (0 to 1)
300.0	4.0792e-07
300.2	3.7638e-07
300.4	3.4727e-07
300.6	3.2042e-07
300.8	2.9564e-07
301.0	2.7278e-07
301.2	2.5169e-07
301.4	2.3223e-07
301.6	2.1427e-07
301.8	1.977e-07
302.0	1.9467e-07
302.2	1.9174e-07
302.4	1.8886e-07
302.6	1.8602e-07
302.8	1.8323e-07
303.0	1.8047e-07
303.2	1.7776e-07
303.4	1.7509e-07
303.6	1.7246e-07
303.8	1.6987e-07
304.0	1.6785e-07
304.2	1.6599e-07
304.4	1.6415e-07
304.6	1.6234e-07
304.8	1.6054e-07
305.0	1.5877e-07
305.2	1.5701e-07
305.4	1.5528e-07
305.6	1.5356e-07
305.8	1.5186e-07
306.0	1.5054e-07
306.2	1.495e-07
306.4	1.4847e-07
306.6	1.4744e-07
306.8	1.4642e-07
307.0	1.454e-07
307.2	1.444e-07
307.4	1.434e-07
307.6	1.4241e-07
307.8	1.4142e-07
308.0	1.4108e-07
308.2	1.4184e-07
308.4	1.4259e-07
308.6	1.4335e-07
308.8	1.4412e-07
309.0	1.4489e-07
309.2	1.4566e-07
309.4	1.4644e-07
309.6	1.4722e-07
309.8	1.4801e-07
310.0	1.4872e-07
310.2	1.4855e-07
310.4	1.4837e-07
310.6	1.4819e-07
310.8	1.4801e-07
311.0	1.4783e-07
311.2	1.4766e-07
311.4	1.4748e-07
311.6	1.473e-07
311.8	1.4712e-07
312.0	1.4543e-07
312.2	1.4372e-07
312.4	1.4203e-07
312.6	1.4036e-07
312.8	1.3871e-07
313.0	1.3707e-07
313.2	1.3546e-07
313.4	1.3387e-07
313.6	1.3229e-07
313.8	1.3074e-07
314.0	1.5216e-07
314.2	1.8622e-07
314.4	2.2791e-07
314.6	2.7892e-07
314.8	3.4136e-07
315.0	4.1777e-07
315.2	5.1129e-07
315.4	6.2574e-07
315.6	7.6582e-07
315.8	9.3724e-07
316.0	9.0975e-07
316.2	7.3875e-07
316.4	5.9989e-07
316.6	4.8713e-07
316.8	3.9556e-07
317.0	3.2121e-07
317.2	2.6083e-07
317.4	2.118e-07
317.6	1.7199e-07
317.8	1.3966e-07
318.0	1.3246e-07
318.2	1.6457e-07
318.4	2.0448e-07
318.6	2.5406e-07
318.8	3.1566e-07
319.0	3.9219e-07
319.2	4.8728e-07
319.4	6.0544e-07
319.6	7.5223e-07
319.8	9.3462e-07
320.0	1.1393e-06
320.2	1.1155e-06
320.4	1.0921e-06
320.6	1.0692e-06
320.8	1.0468e-06
321.0	1.0249e-06
321.2	1.0034e-06
321.4	9.8241e-07
321.6	9.6184e-07
321.8	9.4169e-07
322.0	7.7024e-07
322.2	6.277e-07
322.4	5.1153e-07
322.6	4.1687e-07
322.8	3.3972e-07
323.0	2.7685e-07
323.2	2.2562e-07
323.4	1.8386e-07
323.6	1.4984e-07
323.8	1.2211e-07
324.0	1.1499e-07
324.2	1.128e-07
324.4	1.1065e-07
324.6	1.0854e-07
324.8	1.0647e-07
325.0	1.0444e-07
325.2	1.0245e-07
325.4	1.0049e-07
325.6	9.8576e-08
325.8	9.6696e-08
326.0	1.0316e-07
326.2	1.1695e-07
326.4	1.3258e-07
326.6	1.503e-07
326.8	1.7039e-07
327.0	1.9316e-07
327.2	2.1898e-07
327.4	2.4825e-07
327.6	2.8144e-07
327.8	3.1906e-07
328.0	3.5493e-07
328.2	3.8311e-07
328.4	4.1352e-07
328.6	4.4634e-07
328.8	4.8177e-07
329.0	5.2001e-07
329.2	5.6129e-07
329.4	6.0584e-07
329.6	6.5393e-07
329.8	7.0583e-07
330.0	7.3733e-07
330.2	5.6396e-07
330.4	4.3136e-07
330.6	3.2993e-07
330.8	2.5236e-07
331.0	1.9302e-07
331.2	1.4763e-07
331.4	1.1292e-07
331.6	8.637e-08
331.8	6.6062e-08
332.0	7.7542e-08
332.2	9.3092e-08
332.4	1.1176e-07
332.6	1.3417e-07
332.8	1.6108e-07
333.0	1.9338e-07
333.2	2.3216e-07
333.4	2.7871e-07
333.6	3.3461e-07
333.8	4.0171e-07
334.0	4.1249e-07
334.2	4.0262e-07
334.4	3.9299e-07
334.6	3.8359e-07
334.8	3.7441e-07
335.0	3.6545e-07
335.2	3.5671e-07
335.4	3.4817e-07
335.6	3.3984e-07
335.8	3.3171e-07
336.0	2.9538e-07
336.2	2.4508e-07
336.4	2.0335e-07
336.6	1.6872e-07
336.8	1.3999e-07
337.0	1.1615e-07
337.2	9.6372e-08
337.4	7.9962e-08
337.6	6.6346e-08
337.8	5.5048e-08
338.0	4.8798e-08
338.2	4.8301e-08
338.4	4.7809e-08
338.6	4.7322e-08
338.8	4.684e-08
339.0	4.6363e-08
339.2	4.589e-08
339.4	4.5423e-08
339.6	4.496e-08
339.8	4.4502e-08
340.0	4.405e-08
340.2	4.3611e-08
340.4	4.3177e-08
340.6	4.2748e-08
340.8	4.2322e-08
341.0	4.1901e-08
341.2	4.1484e-08
341.4	4.1071e-08
341.6	4.0662e-08
341.8	4.0257e-08
342.0	3.997e-08
342.2	3.9693e-08
342.4	3.9418e-08
342.6	3.9145e-08
342.8	3.8873e-08
343.0	3.8604e-08
343.2	3.8336e-08
343.4	3.8071e-08
343.6	3.7807e-08
343.8	3.7545e-08
344.0	4.251e-08
344.2	5.0402e-08
344.4	5.9758e-08
344.6	7.0852e-08
344.8	8.4005e-08
345.0	9.9599e-08
345.2	1.1809e-07
345.4	1.4001e-07
345.6	1.66e-07
345.8	1.9682e-07
346.0	2.0773e-07
346.2	1.9973e-07
346.4	1.9203e-07
346.6	1.8463e-07
346.8	1.7752e-07
347.0	1.7068e-07
347.2	1.641e-07
347.4	1.5778e-07
347.6	1.517e-07
347.8	1.4586e-07
348.0	1.4573e-07
348.2	1.5524e-07
348.4	1.6536e-07
348.6	1.7615e-07
348.8	1.8764e-07
349.0	1.9988e-07
349.2	2.1292e-07
349.4	2.2681e-07
349.6	2.416e-07
349.8	2.5736e-07
350.0	2.6723e-07
350.2	2.1754e-07
350.4	1.7709e-07
350.6	1.4416e-07
350.8	1.1735e-07
351.0	9.5531e-08
351.2	7.7767e-08
351.4	6.3306e-08
351.6	5.1535e-08
351.8	4.1952e-08
352.0	4.1219e-08
352.2	4.1077e-08
352.4	4.0935e-08
352.6	4.0794e-08
352.8	4.0653e-08
353.0	4.0512e-08
353.2	4.0372e-08
353.4	4.0233e-08
353.6	4.0094e-08
353.8	3.9956e-08
354.0	4.193e-08
354.2	4.4786e-08
354.4	4.7838e-08
354.6	5.1097e-08
354.8	5.4578e-08
355.0	5.8296e-08
355.2	6.2268e-08
355.4	6.6511e-08
355.6	7.1042e-08
355.8	7.5882e-08
356.0	7.5057e-08
356.2	6.9975e-08
356.4	6.5238e-08
356.6	6.0822e-08
356.8	5.6704e-08
357.0	5.2865e-08
357.2	4.9286e-08
357.4	4.595e-08
357.6	4.2839e-08
357.8	3.9939e-08
358.0	3.9932e-08
358.2	4.4538e-08
358.4	4.9675e-08
358.6	5.5406e-08
358.8	6.1797e-08
359.0	6.8925e-08
359.2	7.6876e-08
359.4	8.5744e-08
359.6	9.5635e-08
359.8	1.0667e-07
360.0	1.1944e-07
360.2	1.3831e-07
360.4	1.6015e-07
360.6	1.8545e-07
360.8	2.1475e-07
361.0	2.4867e-07
361.2	2.8795e-07
361.4	3.3343e-07
361.6	3.861e-07
361.8	4.4709e-07
362.0	4.5663e-07
362.2	4.6266e-07
362.4	4.6877e-07
362.6	4.7495e-07
362.8	4.8122e-07
363.0	4.8757e-07
363.2	4.9401e-07
363.4	5.0053e-07
363.6	5.0714e-07
363.8	5.1383e-07
364.0	5.053e-07
364.2	4.9238e-07
364.4	4.7979e-07
364.6	4.6752e-07
364.8	4.5556e-07
365.0	4.4391e-07
365.2	4.3256e-07
365.4	4.215e-07
365.6	4.1072e-07
365.8	4.0021e-07
366.0	3.4404e-07
366.2	2.7108e-07
366.4	2.1359e-07
366.6	1.6829e-07
366.8	1.326e-07
367.0	1.0448e-07
367.2	8.2322e-08
367.4	6.4864e-08
367.6	5.1108e-08
367.8	4.0269e-08
368.0	3.4988e-08
368.2	3.4891e-08
368.4	3.4795e-08
368.6	3.4699e-08
368.8	3.4603e-08
369.0	3.4508e-08
369.2	3.4413e-08
369.4	3.4318e-08
369.6	3.4223e-08
369.8	3.4129e-08
370.0	3.403e-08
370.2	3.3905e-08
370.4	3.378e-08
370.6	3.3655e-08
370.8	3.3531e-08
371.0	3.3408e-08
371.2	3.3284e-08
371.4	3.3162e-08
371.6	3.3039e-08
371.8	3.2918e-08
372.0	4.4218e-08
372.2	6.0644e-08
372.4	8.3172e-08
372.6	1.1407e-07
372.8	1.5644e-07
373.0	2.1456e-07
373.2	2.9426e-07
373.4	4.0358e-07
373.6	5.535e-07
373.8	7.5912e-07
374.0	6.9275e-07
374.2	5.5782e-07
374.4	4.4918e-07
374.6	3.6169e-07
374.8	2.9124e-07
375.0	2.3452e-07
375.2	1.8884e-07
375.4	1.5206e-07
375.6	1.2244e-07
375.8	9.8595e-08
376.0	9.8763e-08
376.2	1.1443e-07
376.4	1.3259e-07
376.6	1.5363e-07
376.8	1.78e-07
377.0	2.0625e-07
377.2	2.3897e-07
377.4	2.7689e-07
377.6	3.2082e-07
377.8	3.7172e-07
378.0	3.7856e-07
378.2	3.249e-07
378.4	2.7885e-07
378.6	2.3933e-07
378.8	2.0541e-07
379.0	1.763e-07
379.2	1.5131e-07
379.4	1.2986e-07
379.6	1.1146e-07
379.8	9.5661e-08
380.0	8.2426e-08
380.2	7.2835e-08
380.4	6.4361e-08
380.6	5.6872e-08
380.8	5.0255e-08
381.0	4.4407e-08
381.2	3.924e-08
381.4	3.4674e-08
381.6	3.064e-08
381.8	2.7075e-08
382.0	3.5608e-08
382.2	4.8366e-08
382.4	6.5695e-08
382.6	8.9232e-08
382.8	1.212e-07
383.0	1.6463e-07
383.2	2.2361e-07
383.4	3.0372e-07
383.6	4.1254e-07
383.8	5.6035e-07
384.0	6.2256e-07
384.2	6.4914e-07
384.4	6.7686e-07
384.6	7.0576e-07
384.8	7.359e-07
385.0	7.6733e-07
385.2	8.0009e-07
385.4	8.3426e-07
385.6	8.6988e-07
385.8	9.0703e-07
386.0	9.0132e-07
386.2	8.6736e-07
386.4	8.3467e-07
386.6	8.0322e-07
386.8	7.7296e-07
387.0	7.4384e-07
387.2	7.1581e-07
387.4	6.8884e-07
387.6	6.6288e-07
387.8	6.3791e-07
388.0	6.067e-07
388.2	5.6846e-07
388.4	5.3264e-07
388.6	4.9907e-07
388.8	4.6761e-07
389.0	4.3814e-07
389.2	4.1052e-07
389.4	3.8465e-07
389.6	3.6041e-07
389.8	3.3769e-07
390.0	3.1986e-07
390.2	3.2382e-07
390.4	3.2784e-07
390.6	3.3191e-07
390.8	3.3603e-07
391.0	3.4019e-07
391.2	3.4441e-07
391.4	3.4869e-07
391.6	3.5301e-07
391.8	3.5739e-07
392.0	3.3762e-07
392.2	3.169e-07
392.4	2.9745e-07
392.6	2.7919e-07
392.8	2.6206e-07
393.0	2.4597e-07
393.2	2.3088e-07
393.4	2.1671e-07
393.6	2.034e-07
393.8	1.9092e-07
394.0	1.8732e-07
394.2	1.8638e-07
394.4	1.8544e-07
394.6	1.8451e-07
394.8	1.8358e-07
395.0	1.8266e-07
395.2	1.8174e-07
395.4	1.8082e-07
395.6	1.7991e-07
395.8	1.7901e-07
396.0	1.6191e-07
396.2	1.3742e-07
396.4	1.1664e-07
396.6	9.8997e-08
396.8	8.4025e-08
397.0	7.1317e-08
397.2	6.0531e-08
397.4	5.1376e-08
397.6	4.3606e-08
397.8	3.7011e-08
398.0	3.397e-08
398.2	3.4306e-08
398.4	3.4646e-08
398.6	3.4989e-08
398.8	3.5335e-08
399.0	3.5685e-08
399.2	3.6039e-08
399.4	3.6396e-08
399.6	3.6756e-08
399.8	3.712e-08
400.0	3.6888e-08
400.2	3.3454e-08
400.4	3.0341e-08
400.6	2.7517e-08
400.8	2.4955e-08
401.0	2.2633e-08
401.2	2.0526e-08
401.4	1.8616e-08
401.6	1.6883e-08
401.8	1.5312e-08
402.0	1.5065e-08
402.2	1.4988e-08
402.4	1.4911e-08
402.6	1.4835e-08
402.8	1.4759e-08
403.0	1.4683e-08
403.2	1.4608e-08
403.4	1.4534e-08
403.6	1.4459e-08
403.8	1.4385e-08
404.0	2.0027e-08
404.2	3.1572e-08
404.4	4.9772e-08
404.6	7.8462e-08
404.8	1.2369e-07
405.0	1.9499e-07
405.2	3.074e-07
405.4	4.846e-07
405.6	7.6394e-07
405.8	1.2043e-06
406.0	1.4827e-06
406.2	1.5263e-06
406.4	1.5712e-06
406.6	1.6174e-06
406.8	1.665e-06
407.0	1.7139e-06
407.2	1.7643e-06
407.4	1.8162e-06
407.6	1.8696e-06
407.8	1.9245e-06
408.0	1.9851e-06
408.2	2.0532e-06
408.4	2.1236e-06
408.6	2.1964e-06
408.8	2.2716e-06
409.0	2.3495e-06
409.2	2.43e-06
409.4	2.5133e-06
409.6	2.5995e-06
409.8	2.6886e-06
410.0	2.7208e-06
410.2	2.4089e-06
410.4	2.1328e-06
410.6	1.8883e-06
410.8	1.6718e-06
411.0	1.4802e-06
411.2	1.3105e-06
411.4	1.1603e-06
411.6	1.0273e-06
411.8	9.095e-07
412.0	1.0129e-06
412.2	1.1655e-06
412.4	1.3412e-06
412.6	1.5434e-06
412.8	1.7761e-06
413.0	2.0438e-06
413.2	2.3519e-06
413.4	2.7065e-06
413.6	3.1145e-06
413.8	3.584e-06
414.0	3.6604e-06
414.2	3.5772e-06
414.4	3.4958e-06
414.6	3.4163e-06
414.8	3.3386e-06
415.0	3.2627e-06
415.2	3.1885e-06
415.4	3.116e-06
415.6	3.0451e-06
415.8	2.9759e-06
416.0	3.0473e-06
416.2	3.2258e-06
416.4	3.4147e-06
416.6	3.6146e-06
416.8	3.8262e-06
417.0	4.0503e-06
417.2	4.2874e-06
417.4	4.5384e-06
417.6	4.8042e-06
417.8	5.0855e-06
418.0	5.1348e-06
418.2	4.888e-06
418.4	4.653e-06
418.6	4.4293e-06
418.8	4.2164e-06
419.0	4.0137e-06
419.2	3.8207e-06
419.4	3.637e-06
419.6	3.4622e-06
419.8	3.2957e-06
420.0	3.0657e-06
420.2	2.5146e-06
420.4	2.0626e-06
420.6	1.6918e-06
420.8	1.3877e-06
421.0	1.1382e-06
421.2	9.3359e-07
421.4	7.6576e-07
421.6	6.281e-07
421.8	5.1519e-07
422.0	5.1713e-07
422.2	5.3219e-07
422.4	5.4769e-07
422.6	5.6364e-07
422.8	5.8005e-07
423.0	5.9695e-07
423.2	6.1433e-07
423.4	6.3223e-07
423.6	6.5064e-07
423.8	6.6959e-07
424.0	6.8909e-07
424.2	7.0916e-07
424.4	7.2981e-07
424.6	7.2821e-07
424.8	7.2341e-07
425.0	7.1864e-07
425.2	7.1391e-07
425.4	7.092e-07
425.6	7.0453e-07
425.8	6.9988e-07
426.0	6.9527e-07
426.2	6.9069e-07
426.4	6.6198e-07
426.6	5.6812e-07
426.8	4.8757e-07
427.0	4.1844e-07
427.2	3.5911e-07
427.4	3.082e-07
427.6	2.645e-07
427.8	2.27e-07
428.0	1.9481e-07
428.2	1.6719e-07
428.4	1.4689e-07
428.6	1.5605e-07
428.8	1.6577e-07
429.0	1.761e-07
429.2	1.8707e-07
429.4	1.9872e-07
429.6	2.1111e-07
429.8	2.2426e-07
430.0	2.3823e-07
430.2	2.5307e-07
430.4	2.6884e-07
430.6	2.8371e-07
430.8	2.9935e-07
431.0	3.1585e-07
431.2	3.3327e-07
431.4	3.5164e-07
431.6	3.7103e-07
431.8	3.9148e-07
432.0	4.1306e-07
432.2	4.3583e-07
432.4	4.5986e-07
432.6	4.8521e-07
432.8	5.1196e-07
433.0	4.387e-07
433.2	2.9869e-07
433.4	2.0336e-07
433.6	1.3846e-07
433.8	9.4271e-08
434.0	6.4184e-08
434.2	4.37e-08
434.4	2.9753e-08
434.6	2.0257e-08
434.8	1.3792e-08
435.0	9.2504e-09
435.2	9.2356e-09
435.4	9.2208e-09
435.6	9.2061e-09
435.8	9.1914e-09
436.0	9.1767e-09
436.2	9.162e-09
436.4	9.1474e-09
436.6	9.1328e-09
436.8	9.1182e-09
437.0	9.1036e-09
437.2	1.2769e-08
437.4	1.7941e-08
437.6	2.5209e-08
437.8	3.542e-08
438.0	4.9766e-08
438.2	6.9925e-08
438.4	9.8248e-08
438.6	1.3804e-07
438.8	1.9396e-07
439.0	2.7252e-07
439.2	2.897e-07
439.4	2.9485e-07
439.6	3.0009e-07
439.8	3.0542e-07
440.0	3.1084e-07
440.2	3.1636e-07
440.4	3.2198e-07
440.6	3.277e-07
440.8	3.3352e-07
441.0	3.3944e-07
441.2	3.0612e-07
441.4	2.6429e-07
441.6	2.2817e-07
441.8	1.9699e-07
442.0	1.7008e-07
442.2	1.4684e-07
442.4	1.2677e-07
442.6	1.0945e-07
442.8	9.4492e-08
443.0	8.158e-08
443.2	8.6214e-08
443.4	1.0368e-07
443.6	1.247e-07
443.8	1.4996e-07
444.0	1.8035e-07
444.2	2.169e-07
444.4	2.6085e-07
444.6	3.1372e-07
444.8	3.7729e-07
445.0	4.5374e-07
445.2	5.2589e-07
445.4	6.0951e-07
445.6	7.0643e-07
445.8	8.1875e-07
446.0	9.4894e-07
446.2	1.0998e-06
446.4	1.2747e-06
446.6	1.4774e-06
446.8	1.7123e-06
447.0	1.9846e-06
447.2	1.7302e-06
447.4	1.504e-06
447.6	1.3075e-06
447.8	1.1366e-06
448.0	9.8803e-07
448.2	8.589e-07
448.4	7.4664e-07
448.6	6.4906e-07
448.8	5.6423e-07
449.0	4.9048e-07
449.2	3.3524e-07
449.4	2.2069e-07
449.6	1.4528e-07
449.8	9.5641e-08
450.0	6.2962e-08
450.2	4.1448e-08
450.4	2.7286e-08
450.6	1.7963e-08
450.8	1.1825e-08
451.0	7.7845e-09
451.2	9.3282e-09
451.4	1.3796e-08
451.6	2.0405e-08
451.8	3.0179e-08
452.0	4.4634e-08
452.2	6.6013e-08
452.4	9.7634e-08
452.6	1.444e-07
452.8	2.1357e-07
453.0	3.1586e-07
453.2	3.891e-07
453.4	4.2852e-07
453.6	4.7192e-07
453.8	5.1973e-07
454.0	5.7237e-07
454.2	6.3035e-07
454.4	6.942e-07
454.6	7.6451e-07
454.8	8.4195e-07
455.0	9.2723e-07
455.2	8.731e-07
455.4	8.2213e-07
455.6	7.7413e-07
455.8	7.2894e-07
456.0	6.8638e-07
456.2	6.4631e-07
456.4	6.0858e-07
456.6	5.7305e-07
456.8	5.3959e-07
457.0	5.087e-07
457.2	6.1017e-07
457.4	7.3187e-07
457.6	8.7784e-07
457.8	1.0529e-06
458.0	1.2629e-06
458.2	1.5148e-06
458.4	1.817e-06
458.6	2.1794e-06
458.8	2.6141e-06
459.0	3.1355e-06
459.2	3.201e-06
459.4	3.2001e-06
459.6	3.1993e-06
459.8	3.1984e-06
460.0	3.1976e-06
460.2	3.1967e-06
460.4	3.1959e-06
460.6	3.195e-06
460.8	3.1942e-06
461.0	3.1933e-06
461.2	3.2373e-06
461.4	3.2956e-06
461.6	3.355e-06
461.8	3.4154e-06
462.0	3.477e-06
462.2	3.5396e-06
462.4	3.6034e-06
462.6	3.6683e-06
462.8	3.7343e-06
463.0	3.8016e-06
463.2	3.6701e-06
463.4	3.4455e-06
463.6	3.2347e-06
463.8	3.0368e-06
464.0	2.851e-06
464.2	2.6765e-06
464.4	2.5127e-06
464.6	2.359e-06
464.8	2.2146e-06
465.0	2.0791e-06
465.2	1.6503e-06
465.4	1.3099e-06
465.6	1.0398e-06
465.8	8.2533e-07
466.0	6.5511e-07
466.2	5.2e-07
466.4	4.1275e-07
466.6	3.2763e-07
466.8	2.6006e-07
467.0	2.0642e-07
467.2	2.032e-07
467.4	2.0137e-07
467.6	1.9956e-07
467.8	1.9776e-07
468.0	1.9597e-07
468.2	1.9421e-07
468.4	1.9246e-07
468.6	1.9072e-07
468.8	1.89e-07
469.0	1.873e-07
469.2	2.0793e-07
469.4	2.3532e-07
469.6	2.6632e-07
469.8	3.014e-07
470.0	3.411e-07
470.2	3.8603e-07
470.4	4.3688e-07
470.6	4.9443e-07
470.8	5.5957e-07
471.0	6.3328e-07
471.2	6.0788e-07
471.4	5.5153e-07
471.6	5.004e-07
471.8	4.5401e-07
472.0	4.1193e-07
472.2	3.7374e-07
472.4	3.3909e-07
472.6	3.0766e-07
472.8	2.7914e-07
473.0	2.5326e-07
473.2	2.1467e-07
473.4	1.7498e-07
473.6	1.4263e-07
473.8	1.1626e-07
474.0	9.4765e-08
474.2	7.7244e-08
474.4	6.2963e-08
474.6	5.1322e-08
474.8	4.1833e-08
475.0	3.4099e-08
475.2	3.3343e-08
475.4	3.2604e-08
475.6	3.1882e-08
475.8	3.1175e-08
476.0	3.0484e-08
476.2	2.9808e-08
476.4	2.9148e-08
476.6	2.8502e-08
476.8	2.787e-08
477.0	2.7252e-08
477.2	3.2237e-08
477.4	3.8208e-08
477.6	4.5284e-08
477.8	5.367e-08
478.0	6.361e-08
478.2	7.5391e-08
478.4	8.9353e-08
478.6	1.059e-07
478.8	1.2551e-07
479.0	1.4876e-07
479.2	1.3209e-07
479.4	1.1276e-07
479.6	9.6263e-08
479.8	8.2178e-08
480.0	7.0153e-08
480.2	5.9888e-08
480.4	5.1125e-08
480.6	4.3644e-08
480.8	3.7258e-08
481.0	3.1806e-08
481.2	2.4623e-08
481.4	1.8529e-08
481.6	1.3943e-08
481.8	1.0492e-08
482.0	7.8953e-09
482.2	5.9412e-09
482.4	4.4708e-09
482.6	3.3642e-09
482.8	2.5316e-09
483.0	1.905e-09
483.2	1.7814e-09
483.4	1.8495e-09
483.6	1.9202e-09
483.8	1.9936e-09
484.0	2.0698e-09
484.2	2.149e-09
484.4	2.2311e-09
484.6	2.3164e-09
484.8	2.405e-09
485.0	2.4969e-09
485.2	2.3876e-09
485.4	2.283e-09
485.6	2.183e-09
485.8	2.0875e-09
486.0	1.996e-09
486.2	1.9086e-09
486.4	1.8251e-09
486.6	1.7451e-09
486.8	1.6687e-09
487.0	1.5956e-09
487.2	2.4982e-09
487.4	4.0033e-09
487.6	6.4151e-09
487.8	1.028e-08
488.0	1.6473e-08
488.2	2.6397e-08
488.4	4.23e-08
488.6	6.7785e-08
488.8	1.0862e-07
489.0	1.7406e-07
489.2	2.0876e-07
489.4	2.3836e-07
489.6	2.7217e-07
489.8	3.1076e-07
490.0	3.5483e-07
490.2	4.0515e-07
490.4	4.6261e-07
490.6	5.2822e-07
490.8	6.0313e-07
491.0	6.8866e-07
491.2	5.8966e-07
491.4	4.5987e-07
491.6	3.5865e-07
491.8	2.7971e-07
492.0	2.1814e-07
492.2	1.7013e-07
492.4	1.3268e-07
492.6	1.0347e-07
492.8	8.0699e-08
493.0	6.2936e-08
493.2	5.6493e-08
493.4	5.4519e-08
493.6	5.2614e-08
493.8	5.0776e-08
494.0	4.9002e-08
494.2	4.7289e-08
494.4	4.5637e-08
494.6	4.4042e-08
494.8	4.2503e-08
495.0	4.1018e-08
495.2	4.398e-08
495.4	4.7156e-08
495.6	5.0562e-08
495.8	5.4213e-08
496.0	5.8128e-08
496.2	6.2326e-08
496.4	6.6826e-08
496.6	7.1652e-08
496.8	7.6827e-08
497.0	8.2375e-08
497.2	1.1114e-07
497.4	1.5177e-07
497.6	2.0725e-07
497.8	2.8301e-07
498.0	3.8647e-07
498.2	5.2775e-07
498.4	7.2068e-07
498.6	9.8415e-07
498.8	1.3439e-06
499.0	1.8352e-06
499.2	1.5901e-06
499.4	1.2755e-06
499.6	1.0231e-06
499.8	8.2061e-07
500.0	6.5822e-07
500.2	5.2797e-07
500.4	4.2349e-07
500.6	3.3969e-07
500.8	2.7247e-07
501.0	2.1855e-07
501.2	1.933e-07
501.4	1.7618e-07
501.6	1.6057e-07
501.8	1.4635e-07
502.0	1.3339e-07
502.2	1.2157e-07
502.4	1.108e-07
502.6	1.0099e-07
502.8	9.2043e-08
503.0	8.389e-08
503.2	9.1296e-08
503.4	1.0821e-07
503.6	1.2826e-07
503.8	1.5203e-07
504.0	1.802e-07
504.2	2.1359e-07
504.4	2.5316e-07
504.6	3.0007e-07
504.8	3.5567e-07
505.0	4.2157e-07
505.2	4.9748e-07
505.4	5.8706e-07
505.6	6.9278e-07
505.8	8.1753e-07
506.0	9.6474e-07
506.2	1.1385e-06
506.4	1.3435e-06
506.6	1.5854e-06
506.8	1.8709e-06
507.0	2.2078e-06
507.2	1.6686e-06
507.4	1.2408e-06
507.6	9.2273e-07
507.8	6.8618e-07
508.0	5.1027e-07
508.2	3.7946e-07
508.4	2.8219e-07
508.6	2.0985e-07
508.8	1.5605e-07
509.0	1.1605e-07
509.2	9.8086e-08
509.4	8.4436e-08
509.6	7.2685e-08
509.8	6.2569e-08
510.0	5.3862e-08
510.2	4.6366e-08
510.4	3.9913e-08
510.6	3.4359e-08
510.8	2.9577e-08
511.0	2.5461e-08
511.2	2.6767e-08
511.4	2.9677e-08
511.6	3.2903e-08
511.8	3.6479e-08
512.0	4.0445e-08
512.2	4.4841e-08
512.4	4.9715e-08
512.6	5.5119e-08
512.8	6.111e-08
513.0	6.7753e-08
513.2	8.057e-08
513.4	9.8663e-08
513.6	1.2082e-07
513.8	1.4795e-07
514.0	1.8117e-07
514.2	2.2186e-07
514.4	2.7168e-07
514.6	3.3269e-07
514.8	4.0739e-07
515.0	4.9888e-07
515.2	3.3156e-07
515.4	2.2036e-07
515.6	1.4645e-07
515.8	9.7334e-08
516.0	6.4689e-08
516.2	4.2993e-08
516.4	2.8574e-08
516.6	1.899e-08
516.8	1.2621e-08
517.0	8.3882e-09
517.2	6.6295e-09
517.4	5.3137e-09
517.6	4.259e-09
517.8	3.4137e-09
518.0	2.7362e-09
518.2	2.1931e-09
518.4	1.7578e-09
518.6	1.4089e-09
518.8	1.1293e-09
519.0	9.0514e-10
519.2	1.2827e-09
519.4	2.026e-09
519.6	3.2002e-09
519.8	5.0549e-09
520.0	7.9844e-09
520.2	1.2612e-08
520.4	1.9921e-08
520.6	3.1466e-08
520.8	4.9703e-08
521.0	7.8508e-08
521.2	7.0574e-08
521.4	5.3098e-08
521.6	3.9949e-08
521.8	3.0056e-08
522.0	2.2613e-08
522.2	1.7014e-08
522.4	1.28e-08
522.6	9.6306e-09
522.8	7.2458e-09
523.0	5.4515e-09
523.2	5.2876e-09
523.4	5.7641e-09
523.6	6.2836e-09
523.8	6.8498e-09
524.0	7.4671e-09
524.2	8.14e-09
524.4	8.8736e-09
524.6	9.6732e-09
524.8	1.0545e-08
525.0	1.1495e-08
525.2	1.1445e-08
525.4	1.1395e-08
525.6	1.1346e-08
525.8	1.1296e-08
526.0	1.1247e-08
526.2	1.1198e-08
526.4	1.115e-08
526.6	1.1101e-08
526.8	1.1053e-08
527.0	1.1005e-08
527.2	1.163e-08
527.4	1.2338e-08
527.6	1.3089e-08
527.8	1.3885e-08
528.0	1.473e-08
528.2	1.5626e-08
528.4	1.6577e-08
528.6	1.7586e-08
528.8	1.8656e-08
529.0	1.9791e-08
529.2	1.9107e-08
529.4	1.8176e-08
529.6	1.7291e-08
529.8	1.6449e-08
530.0	1.5648e-08
530.2	1.4886e-08
530.4	1.4161e-08
530.6	1.3472e-08
530.8	1.2815e-08
531.0	1.2191e-08
531.2	9.6892e-09
531.4	7.3411e-09
531.6	5.5621e-09
531.8	4.2142e-09
532.0	3.1929e-09
532.2	2.4192e-09
