Typical Measured Spectrum of Semrock FF01-593/46 Optical Filter	
For wavelengths between 320 and 1120 nm, values near or below 3e-7 (Optical Density 6.5) are measurement noise limited.
For wavelengths < 320 nm and > 1120 nm, values near or below 3e-6 (Optical Density 5.5) are measurement noise limited. 
Data format:  Wavelength (nm) <tab> Transmission (0 to 1)
265.0	1.7483e-05
265.2	1.8544e-05
265.4	1.9671e-05
265.6	2.0865e-05
265.8	2.2132e-05
266.0	2.3477e-05
266.2	2.4902e-05
266.4	2.6415e-05
266.6	2.8019e-05
266.8	2.972e-05
267.0	3.1525e-05
267.2	2.7431e-05
267.4	2.3349e-05
267.6	1.9875e-05
267.8	1.6918e-05
268.0	1.44e-05
268.2	1.2257e-05
268.4	1.0433e-05
268.6	8.8809e-06
268.8	7.5594e-06
269.0	6.4346e-06
269.2	5.4771e-06
269.4	4.6621e-06
269.6	3.9683e-06
269.8	3.3778e-06
270.0	2.8752e-06
270.2	2.4474e-06
270.4	2.0832e-06
270.6	1.7732e-06
270.8	1.5609e-06
271.0	1.5478e-06
271.2	1.5348e-06
271.4	1.5219e-06
271.6	1.5091e-06
271.8	1.4964e-06
272.0	1.4838e-06
272.2	1.4713e-06
272.4	1.459e-06
272.6	1.4467e-06
272.8	1.4345e-06
273.0	1.4225e-06
273.2	1.4105e-06
273.4	1.3987e-06
273.6	1.3869e-06
273.8	1.3752e-06
274.0	1.3637e-06
274.2	1.3522e-06
274.4	1.3409e-06
274.6	1.574e-06
274.8	2.1272e-06
275.0	2.8749e-06
275.2	2.0825e-06
275.4	1.5085e-06
275.6	1.2637e-06
275.8	1.2513e-06
276.0	1.239e-06
276.2	1.2269e-06
276.4	1.2148e-06
276.6	1.2029e-06
276.8	1.1911e-06
277.0	1.1794e-06
277.2	1.1679e-06
277.4	1.1564e-06
277.6	1.1451e-06
277.8	1.1338e-06
278.0	1.1227e-06
278.2	1.1117e-06
278.4	1.1008e-06
278.6	1.09e-06
278.8	1.0793e-06
279.0	1.0687e-06
279.2	1.0582e-06
279.4	1.1645e-06
279.6	1.3167e-06
279.8	1.4888e-06
280.0	1.6835e-06
280.2	1.9035e-06
280.4	2.1524e-06
280.6	2.4338e-06
280.8	2.7519e-06
281.0	3.1117e-06
281.2	3.5184e-06
281.4	3.9784e-06
281.6	4.4985e-06
281.8	5.0866e-06
282.0	5.7515e-06
282.2	6.5034e-06
282.4	7.3536e-06
282.6	8.3149e-06
282.8	9.4019e-06
283.0	1.0101e-05
283.2	7.7102e-06
283.4	5.885e-06
283.6	4.4919e-06
283.8	3.4286e-06
284.0	2.6169e-06
284.2	1.9974e-06
284.4	1.5246e-06
284.6	1.1637e-06
284.8	8.8822e-07
285.0	6.7796e-07
285.2	6.6432e-07
285.4	6.5096e-07
285.6	6.3887e-07
285.8	6.2795e-07
286.0	6.1721e-07
286.2	6.0666e-07
286.4	5.9629e-07
286.6	5.861e-07
286.8	5.7608e-07
287.0	5.6623e-07
287.2	5.5655e-07
287.4	5.4704e-07
287.6	5.3769e-07
287.8	5.285e-07
288.0	5.1947e-07
288.2	5.1059e-07
288.4	5.0186e-07
288.6	4.9328e-07
288.8	4.8485e-07
289.0	4.7656e-07
289.2	4.6841e-07
289.4	5.3542e-07
289.6	6.2854e-07
289.8	7.3785e-07
290.0	8.6617e-07
290.2	1.0168e-06
290.4	1.1937e-06
290.6	1.4012e-06
290.8	1.6449e-06
291.0	1.931e-06
291.2	2.2668e-06
291.4	2.6611e-06
291.6	3.1239e-06
291.8	3.6672e-06
292.0	4.3049e-06
292.2	5.0536e-06
292.4	5.9325e-06
292.6	6.9643e-06
292.8	8.1754e-06
293.0	8.6768e-06
293.2	6.0737e-06
293.4	4.2515e-06
293.6	2.976e-06
293.8	2.0832e-06
294.0	1.4582e-06
294.2	1.0207e-06
294.4	7.1448e-07
294.6	5.0013e-07
294.8	3.5008e-07
295.0	2.4505e-07
295.2	2.5452e-07
295.4	2.6434e-07
295.6	2.7455e-07
295.8	2.8515e-07
296.0	2.9616e-07
296.2	3.0759e-07
296.4	3.1947e-07
296.6	3.3181e-07
296.8	3.4462e-07
297.0	3.5792e-07
297.2	3.7174e-07
297.4	3.861e-07
297.6	4.01e-07
297.8	4.1649e-07
298.0	4.3054e-07
298.2	4.2561e-07
298.4	4.2074e-07
298.6	4.1593e-07
298.8	4.1116e-07
299.0	4.0646e-07
299.2	4.0181e-07
299.4	3.9721e-07
299.6	3.9266e-07
299.8	3.8816e-07
300.0	3.8372e-07
300.2	3.7933e-07
300.4	3.7499e-07
300.6	3.7069e-07
300.8	3.6645e-07
301.0	3.6226e-07
301.2	3.5811e-07
301.4	3.5401e-07
301.6	3.4996e-07
301.8	3.5214e-07
302.0	3.6224e-07
302.2	3.7264e-07
302.4	3.8334e-07
302.6	3.9435e-07
302.8	4.0567e-07
303.0	4.1731e-07
303.2	4.2929e-07
303.4	4.4162e-07
303.6	4.5429e-07
303.8	4.6733e-07
304.0	4.8075e-07
304.2	4.9455e-07
304.4	5.0875e-07
304.6	5.2335e-07
304.8	5.3838e-07
305.0	5.5383e-07
305.2	4.2353e-07
305.4	3.2389e-07
305.6	2.6183e-07
305.8	2.6082e-07
306.0	2.5981e-07
306.2	2.588e-07
306.4	2.578e-07
306.6	2.568e-07
306.8	2.558e-07
307.0	2.5481e-07
307.2	2.5383e-07
307.4	2.5284e-07
307.6	2.5186e-07
307.8	2.5089e-07
308.0	2.4992e-07
308.2	2.4895e-07
308.4	2.4798e-07
308.6	2.4702e-07
308.8	2.4607e-07
309.0	2.4511e-07
309.2	2.4416e-07
309.4	2.4313e-07
309.6	2.4202e-07
309.8	2.4091e-07
310.0	2.3981e-07
310.2	2.3872e-07
310.4	2.3763e-07
310.6	2.3655e-07
310.8	2.3547e-07
311.0	2.3439e-07
311.2	2.3332e-07
311.4	2.3226e-07
311.6	2.312e-07
311.8	2.3014e-07
312.0	2.2909e-07
312.2	2.2805e-07
312.4	2.2701e-07
312.6	2.2597e-07
312.8	2.2494e-07
313.0	2.2391e-07
313.2	2.2279e-07
313.4	2.2166e-07
313.6	2.2053e-07
313.8	2.1941e-07
314.0	2.1829e-07
314.2	2.1718e-07
314.4	2.1608e-07
314.6	2.1498e-07
314.8	2.1389e-07
315.0	2.128e-07
315.2	2.1172e-07
315.4	2.1064e-07
315.6	2.0957e-07
315.8	2.085e-07
316.0	2.0744e-07
316.2	2.0639e-07
316.4	2.0534e-07
316.6	2.0429e-07
316.8	2.0964e-07
317.0	2.3861e-07
317.2	2.7157e-07
317.4	3.0909e-07
317.6	3.5179e-07
317.8	4.004e-07
318.0	4.5572e-07
318.2	5.1868e-07
318.4	5.9034e-07
318.6	6.719e-07
318.8	7.6472e-07
319.0	8.7038e-07
319.2	9.9063e-07
319.4	1.1275e-06
319.6	1.2833e-06
319.8	1.4606e-06
320.0	1.6623e-06
320.2	1.892e-06
320.4	2.1534e-06
320.6	2.2186e-06
320.8	2.1299e-06
321.0	2.0447e-06
321.2	1.9629e-06
321.4	1.8844e-06
321.6	1.809e-06
321.8	1.7367e-06
322.0	1.6672e-06
322.2	1.6005e-06
322.4	1.5365e-06
322.6	1.475e-06
322.8	1.416e-06
323.0	1.3594e-06
323.2	1.305e-06
323.4	1.2528e-06
323.6	1.2027e-06
323.8	1.1546e-06
324.0	1.1084e-06
324.2	1.0641e-06
324.4	9.5772e-07
324.6	8.5906e-07
324.8	7.7056e-07
325.0	6.9118e-07
325.2	6.1997e-07
325.4	5.561e-07
325.6	4.9881e-07
325.8	4.4742e-07
326.0	4.0133e-07
326.2	3.5998e-07
326.4	3.229e-07
326.6	2.8963e-07
326.8	2.598e-07
327.0	2.3303e-07
327.2	2.0902e-07
327.4	1.8749e-07
327.6	1.6817e-07
327.8	1.5085e-07
328.0	1.3959e-07
328.2	1.38e-07
328.4	1.3642e-07
328.6	1.3487e-07
328.8	1.3333e-07
329.0	1.3181e-07
329.2	1.3031e-07
329.4	1.2882e-07
329.6	1.2735e-07
329.8	1.259e-07
330.0	1.2447e-07
330.2	1.2305e-07
330.4	1.2165e-07
330.6	1.2026e-07
330.8	1.1889e-07
331.0	1.1753e-07
331.2	1.1619e-07
331.4	1.1487e-07
331.6	1.1356e-07
331.8	1.1428e-07
332.0	1.1588e-07
332.2	1.1751e-07
332.4	1.1915e-07
332.6	1.2082e-07
332.8	1.2252e-07
333.0	1.2424e-07
333.2	1.2598e-07
333.4	1.2775e-07
333.6	1.2954e-07
333.8	1.3136e-07
334.0	1.332e-07
334.2	1.3507e-07
334.4	1.3696e-07
334.6	1.3888e-07
334.8	1.4083e-07
335.0	1.428e-07
335.2	1.2307e-07
335.4	1.0606e-07
335.6	9.8862e-08
335.8	1.1274e-07
336.0	1.2857e-07
336.2	1.4661e-07
336.4	1.672e-07
336.6	1.9067e-07
336.8	2.1743e-07
337.0	2.4796e-07
337.2	2.8276e-07
337.4	3.2246e-07
337.6	3.6773e-07
337.8	4.1935e-07
338.0	4.7822e-07
338.2	5.4535e-07
338.4	6.219e-07
338.6	7.092e-07
338.8	8.0876e-07
339.0	9.223e-07
339.2	1.0518e-06
339.4	1.0021e-06
339.6	8.6292e-07
339.8	7.4309e-07
340.0	6.399e-07
340.2	5.5104e-07
340.4	4.7451e-07
340.6	4.0862e-07
340.8	3.5187e-07
341.0	3.0301e-07
341.2	2.6093e-07
341.4	2.247e-07
341.6	1.9349e-07
341.8	1.6662e-07
342.0	1.4348e-07
342.2	1.2356e-07
342.4	1.064e-07
342.6	9.1624e-08
342.8	7.8901e-08
343.0	6.8092e-08
343.2	6.7832e-08
343.4	6.7573e-08
343.6	6.7314e-08
343.8	6.7057e-08
344.0	6.68e-08
344.2	6.6545e-08
344.4	6.6291e-08
344.6	6.6037e-08
344.8	6.5785e-08
345.0	6.5533e-08
345.2	6.5282e-08
345.4	6.5033e-08
345.6	6.4784e-08
345.8	6.4536e-08
346.0	6.429e-08
346.2	6.4044e-08
346.4	6.3799e-08
346.6	6.3555e-08
346.8	6.6562e-08
347.0	7.5389e-08
347.2	8.5386e-08
347.4	9.6709e-08
347.6	1.0953e-07
347.8	1.2406e-07
348.0	1.4051e-07
348.2	1.5914e-07
348.4	1.8025e-07
348.6	2.0415e-07
348.8	2.3122e-07
349.0	2.6188e-07
349.2	2.9661e-07
349.4	3.3594e-07
349.6	3.8049e-07
349.8	4.3095e-07
350.0	4.881e-07
350.2	5.5282e-07
350.4	6.2613e-07
350.6	5.8479e-07
350.8	5.1644e-07
351.0	4.5608e-07
351.2	4.0277e-07
351.4	3.557e-07
351.6	3.1413e-07
351.8	2.7741e-07
352.0	2.4499e-07
352.2	2.1635e-07
352.4	1.9107e-07
352.6	1.6874e-07
352.8	1.4901e-07
353.0	1.316e-07
353.2	1.1622e-07
353.4	1.0263e-07
353.6	9.0638e-08
353.8	8.0045e-08
354.0	7.0689e-08
354.2	6.4568e-08
354.4	6.9535e-08
354.6	7.4883e-08
354.8	8.0642e-08
355.0	8.6845e-08
355.2	9.3524e-08
355.4	1.0072e-07
355.6	1.0846e-07
355.8	1.1681e-07
356.0	1.2579e-07
356.2	1.3546e-07
356.4	1.4588e-07
356.6	1.571e-07
356.8	1.6919e-07
357.0	1.822e-07
357.2	1.9621e-07
357.4	2.113e-07
357.6	2.2756e-07
357.8	2.4506e-07
358.0	2.6795e-07
358.2	2.963e-07
358.4	3.2765e-07
358.6	3.6232e-07
358.8	4.0065e-07
359.0	4.4304e-07
359.2	4.8991e-07
359.4	5.4174e-07
359.6	5.9905e-07
359.8	6.6243e-07
360.0	7.3252e-07
360.2	8.1002e-07
360.4	8.9571e-07
360.6	9.9048e-07
360.8	1.0953e-06
361.0	1.2111e-06
361.2	1.3393e-06
361.4	1.481e-06
361.6	1.6377e-06
361.8	1.7715e-06
362.0	1.9156e-06
362.2	2.0715e-06
362.4	2.24e-06
362.6	2.4223e-06
362.8	2.6193e-06
363.0	2.8324e-06
363.2	3.0629e-06
363.4	3.3121e-06
363.6	3.5816e-06
363.8	3.873e-06
364.0	4.1881e-06
364.2	4.5288e-06
364.4	4.8973e-06
364.6	5.2957e-06
364.8	5.7266e-06
365.0	6.1925e-06
365.2	6.3349e-06
365.4	6.4806e-06
365.6	6.6296e-06
365.8	6.7821e-06
366.0	6.9381e-06
366.2	7.0976e-06
366.4	7.2609e-06
366.6	7.4278e-06
366.8	7.5987e-06
367.0	8.2393e-06
367.2	9.8043e-06
367.4	1.1667e-05
367.6	1.3883e-05
367.8	1.652e-05
368.0	1.9658e-05
368.2	2.3392e-05
368.4	2.7835e-05
368.6	3.3122e-05
368.8	3.9413e-05
369.0	4.69e-05
369.2	5.5808e-05
369.4	6.6409e-05
369.6	7.9023e-05
369.8	9.4034e-05
370.0	1.119e-04
370.2	1.3315e-04
370.4	1.5844e-04
370.6	1.8854e-04
370.8	1.9202e-04
371.0	1.8619e-04
371.2	1.8054e-04
371.4	1.7506e-04
371.6	1.6974e-04
371.8	1.6459e-04
372.0	1.5959e-04
372.2	1.5475e-04
372.4	1.5005e-04
372.6	1.4549e-04
372.8	1.4108e-04
373.0	1.3679e-04
373.2	1.3264e-04
373.4	1.2861e-04
373.6	1.2471e-04
373.8	1.2092e-04
374.0	1.1725e-04
374.2	1.1369e-04
374.4	1.1015e-04
374.6	1.0621e-04
374.8	1.0242e-04
375.0	9.8757e-05
375.2	9.5227e-05
375.4	9.1824e-05
375.6	8.8542e-05
375.8	8.5377e-05
376.0	8.2326e-05
376.2	7.9384e-05
376.4	7.6546e-05
376.6	7.3811e-05
376.8	7.1173e-05
377.0	6.8629e-05
377.2	6.6176e-05
377.4	6.3811e-05
377.6	6.153e-05
377.8	5.9331e-05
378.0	5.7211e-05
378.2	5.8286e-05
378.4	6.229e-05
378.6	6.6569e-05
378.8	7.1142e-05
379.0	7.6029e-05
379.2	8.1252e-05
379.4	8.6834e-05
379.6	9.2799e-05
379.8	9.9174e-05
380.0	1.0599e-04
380.2	1.1327e-04
380.4	1.2105e-04
380.6	1.2936e-04
380.8	1.3825e-04
381.0	1.4775e-04
381.2	1.579e-04
381.4	1.6875e-04
381.6	1.8034e-04
381.8	1.9273e-04
382.0	1.8661e-04
382.2	1.7935e-04
382.4	1.7238e-04
382.6	1.6567e-04
382.8	1.5923e-04
383.0	1.5303e-04
383.2	1.4708e-04
383.4	1.4136e-04
383.6	1.3586e-04
383.8	1.3058e-04
384.0	1.255e-04
384.2	1.2061e-04
384.4	1.1592e-04
384.6	1.1141e-04
384.8	1.0708e-04
385.0	1.0291e-04
385.2	9.8911e-05
385.4	9.5064e-05
385.6	9.4741e-05
385.8	1.0131e-04
386.0	1.0833e-04
386.2	1.1584e-04
386.4	1.2387e-04
386.6	1.3246e-04
386.8	1.4164e-04
387.0	1.5146e-04
387.2	1.6195e-04
387.4	1.7318e-04
387.6	1.8519e-04
387.8	1.9802e-04
388.0	2.1175e-04
388.2	2.2643e-04
388.4	2.4212e-04
388.6	2.5891e-04
388.8	2.7685e-04
389.0	2.9604e-04
389.2	3.1656e-04
389.4	3.0494e-04
389.6	2.837e-04
389.8	2.6393e-04
390.0	2.4555e-04
390.2	2.2844e-04
390.4	2.1253e-04
390.6	1.9772e-04
390.8	1.8395e-04
391.0	1.7113e-04
391.2	1.5921e-04
391.4	1.4812e-04
391.6	1.378e-04
391.8	1.282e-04
392.0	1.1927e-04
392.2	1.0587e-04
392.4	9.397e-05
392.6	8.3412e-05
392.8	7.4039e-05
393.0	6.7076e-05
393.2	6.1972e-05
393.4	5.7256e-05
393.6	5.2899e-05
393.8	4.8873e-05
394.0	4.5154e-05
394.2	4.1718e-05
394.4	3.8544e-05
394.6	3.5611e-05
394.8	3.2901e-05
395.0	3.0397e-05
395.2	2.8084e-05
395.4	2.5947e-05
395.6	2.3973e-05
395.8	2.2148e-05
396.0	2.0463e-05
396.2	1.8906e-05
396.4	1.7467e-05
396.6	1.6138e-05
396.8	1.5464e-05
397.0	1.4859e-05
397.2	1.4277e-05
397.4	1.3718e-05
397.6	1.3181e-05
397.8	1.2666e-05
398.0	1.217e-05
398.2	1.1693e-05
398.4	1.1236e-05
398.6	1.0796e-05
398.8	1.0374e-05
399.0	9.9675e-06
399.2	9.5774e-06
399.4	9.2026e-06
399.6	8.8424e-06
399.8	8.4963e-06
400.0	8.1638e-06
400.2	7.8443e-06
400.4	7.6733e-06
400.6	7.7485e-06
400.8	7.8245e-06
401.0	7.9012e-06
401.2	7.9786e-06
401.4	8.0569e-06
401.6	8.1358e-06
401.8	8.2156e-06
402.0	8.2961e-06
402.2	8.3775e-06
402.4	8.4596e-06
402.6	8.5425e-06
402.8	8.6262e-06
403.0	8.7108e-06
403.2	8.7962e-06
403.4	8.8824e-06
403.6	8.9695e-06
403.8	9.0574e-06
404.0	9.1462e-06
404.2	7.5417e-06
404.4	5.9115e-06
404.6	4.6337e-06
404.8	3.632e-06
405.0	2.8469e-06
405.2	2.2315e-06
405.4	1.7492e-06
405.6	1.3711e-06
405.8	1.0747e-06
406.0	8.4239e-07
406.2	6.603e-07
406.4	5.1757e-07
406.6	4.0569e-07
406.8	3.18e-07
407.0	2.4926e-07
407.2	1.9538e-07
407.4	1.5314e-07
407.6	1.2004e-07
407.8	1.0e-07
408.0	1.0e-07
408.2	1.0e-07
408.4	1.0e-07
408.6	1.0e-07
408.8	1.0e-07
409.0	1.0e-07
409.2	1.0e-07
409.4	1.0e-07
409.6	1.0e-07
409.8	1.0e-07
410.0	1.0e-07
410.2	1.0e-07
410.4	1.0e-07
410.6	1.0e-07
410.8	1.0e-07
411.0	1.0e-07
411.2	1.0e-07
411.4	1.0e-07
411.6	1.0325e-07
411.8	1.08e-07
412.0	1.1298e-07
412.2	1.1818e-07
412.4	1.2362e-07
412.6	1.2931e-07
412.8	1.3527e-07
413.0	1.4149e-07
413.2	1.4801e-07
413.4	1.5482e-07
413.6	1.6195e-07
413.8	1.6941e-07
414.0	1.7721e-07
414.2	1.8537e-07
414.4	1.9391e-07
414.6	2.0283e-07
414.8	2.1217e-07
415.0	2.2194e-07
415.2	2.2843e-07
415.4	2.1837e-07
415.6	2.0875e-07
415.8	1.9955e-07
416.0	1.9076e-07
416.2	1.8236e-07
416.4	1.7432e-07
416.6	1.6664e-07
416.8	1.593e-07
417.0	1.5228e-07
417.2	1.4558e-07
417.4	1.3916e-07
417.6	1.3303e-07
417.8	1.2717e-07
418.0	1.2157e-07
418.2	1.1621e-07
418.4	1.1109e-07
418.6	1.062e-07
418.8	1.0152e-07
419.0	9.4967e-08
419.2	8.7871e-08
419.4	8.1306e-08
419.6	7.5231e-08
419.8	6.961e-08
420.0	6.4408e-08
420.2	5.9596e-08
420.4	5.5143e-08
420.6	5.1023e-08
420.8	4.7211e-08
421.0	4.3683e-08
421.2	4.0419e-08
421.4	3.7399e-08
421.6	3.4605e-08
421.8	3.2019e-08
422.0	2.9627e-08
422.2	2.7413e-08
422.4	2.5365e-08
422.6	2.5026e-08
422.8	3.5037e-08
423.0	4.9053e-08
423.2	6.8676e-08
423.4	9.615e-08
423.6	1.3461e-07
423.8	1.8846e-07
424.0	2.6386e-07
424.2	3.6941e-07
424.4	5.1719e-07
424.6	7.2409e-07
424.8	1.0138e-06
425.0	1.4193e-06
425.2	1.9871e-06
425.4	2.782e-06
425.6	3.8949e-06
425.8	5.453e-06
426.0	7.6344e-06
426.2	1.0688e-05
426.4	1.2342e-05
426.6	1.2875e-05
426.8	1.3432e-05
427.0	1.4013e-05
427.2	1.0675e-05
427.4	8.133e-06
427.6	6.196e-06
427.8	4.7204e-06
428.0	3.5962e-06
428.2	2.7397e-06
428.4	2.0872e-06
428.6	1.5901e-06
428.8	1.2114e-06
429.0	9.229e-07
429.2	7.031e-07
429.4	5.3565e-07
429.6	4.0808e-07
429.8	3.1089e-07
430.0	2.3685e-07
430.2	1.8502e-07
430.4	1.7895e-07
430.6	1.7308e-07
430.8	1.674e-07
431.0	1.619e-07
431.2	1.5659e-07
431.4	1.5145e-07
431.6	1.4648e-07
431.8	1.4167e-07
432.0	1.3702e-07
432.2	1.3253e-07
432.4	1.2818e-07
432.6	1.2397e-07
432.8	1.199e-07
433.0	1.1597e-07
433.2	1.1216e-07
433.4	1.0848e-07
433.6	1.0492e-07
433.8	1.0148e-07
434.0	9.4196e-08
434.2	8.4656e-08
434.4	7.6082e-08
434.6	6.8377e-08
434.8	6.1452e-08
435.0	5.5228e-08
435.2	4.9635e-08
435.4	4.4608e-08
435.6	4.009e-08
435.8	3.603e-08
436.0	3.2381e-08
436.2	2.9102e-08
436.4	2.6154e-08
436.6	2.3505e-08
436.8	2.1125e-08
437.0	1.8985e-08
437.2	1.7063e-08
437.4	1.5335e-08
437.6	1.3841e-08
437.8	1.5402e-08
438.0	1.7139e-08
438.2	1.9072e-08
438.4	2.1223e-08
438.6	2.3616e-08
438.8	2.628e-08
439.0	2.9244e-08
439.2	3.2542e-08
439.4	3.6212e-08
439.6	4.0297e-08
439.8	4.4842e-08
440.0	4.9899e-08
440.2	5.5527e-08
440.4	6.179e-08
440.6	6.8759e-08
440.8	7.6514e-08
441.0	8.5143e-08
441.2	9.4746e-08
441.4	9.9419e-08
441.6	9.8255e-08
441.8	9.7104e-08
442.0	9.5967e-08
442.2	9.4844e-08
442.4	9.3733e-08
442.6	9.2636e-08
442.8	9.1551e-08
443.0	9.0479e-08
443.2	8.942e-08
443.4	8.8373e-08
443.6	8.7338e-08
443.8	8.6316e-08
444.0	8.5305e-08
444.2	8.4306e-08
444.4	8.3319e-08
444.6	8.2344e-08
444.8	8.138e-08
445.0	8.0427e-08
445.2	7.8538e-08
445.4	7.6674e-08
445.6	7.4855e-08
445.8	7.3079e-08
446.0	7.1345e-08
446.2	6.9652e-08
446.4	6.8e-08
446.6	6.6386e-08
446.8	6.4811e-08
447.0	6.3273e-08
447.2	6.1772e-08
447.4	6.0306e-08
447.6	5.8876e-08
447.8	5.7479e-08
448.0	5.6115e-08
448.2	5.4783e-08
448.4	5.3484e-08
448.6	5.2215e-08
448.8	5.243e-08
449.0	5.4342e-08
449.2	5.6324e-08
449.4	5.8378e-08
449.6	6.0507e-08
449.8	6.2714e-08
450.0	6.5001e-08
450.2	6.7372e-08
450.4	6.9829e-08
450.6	7.2376e-08
450.8	7.5016e-08
451.0	7.7752e-08
451.2	8.0587e-08
451.4	8.3526e-08
451.6	8.6573e-08
451.8	8.973e-08
452.0	9.3003e-08
452.2	9.6395e-08
452.4	9.991e-08
452.6	9.1114e-08
452.8	8.2821e-08
453.0	7.5282e-08
453.2	6.8429e-08
453.4	6.22e-08
453.6	5.6538e-08
453.8	5.1392e-08
454.0	4.6714e-08
454.2	4.2461e-08
454.4	3.8596e-08
454.6	3.5083e-08
454.8	3.189e-08
455.0	2.8987e-08
455.2	2.6348e-08
455.4	2.395e-08
455.6	2.177e-08
455.8	1.9788e-08
456.0	1.7987e-08
456.2	1.7611e-08
456.4	1.863e-08
456.6	1.9707e-08
456.8	2.0847e-08
457.0	2.2053e-08
457.2	2.3329e-08
457.4	2.4679e-08
457.6	2.6106e-08
457.8	2.7617e-08
458.0	2.9214e-08
458.2	3.0904e-08
458.4	3.2692e-08
458.6	3.4583e-08
458.8	3.6584e-08
459.0	3.87e-08
459.2	4.0938e-08
459.4	4.3307e-08
459.6	4.5812e-08
459.8	4.8389e-08
460.0	4.6281e-08
460.2	4.4266e-08
460.4	4.2338e-08
460.6	4.0494e-08
460.8	3.873e-08
461.0	3.7044e-08
461.2	3.543e-08
461.4	3.3887e-08
461.6	3.2411e-08
461.8	3.1e-08
462.0	2.965e-08
462.2	2.8358e-08
462.4	2.7123e-08
462.6	2.5942e-08
462.8	2.4812e-08
463.0	2.3731e-08
463.2	2.2698e-08
463.4	2.1709e-08
463.6	2.1746e-08
463.8	2.2623e-08
464.0	2.3535e-08
464.2	2.4484e-08
464.4	2.5472e-08
464.6	2.6499e-08
464.8	2.7567e-08
465.0	2.8679e-08
465.2	2.9835e-08
465.4	3.1038e-08
465.6	3.229e-08
465.8	3.3592e-08
466.0	3.4946e-08
466.2	3.6355e-08
466.4	3.7821e-08
466.6	3.9346e-08
466.8	4.0933e-08
467.0	4.2583e-08
467.2	4.7067e-08
467.4	9.2655e-08
467.6	1.824e-07
467.8	3.5906e-07
468.0	7.0684e-07
468.2	7.1326e-07
468.4	7.1975e-07
468.6	7.2629e-07
468.8	7.3289e-07
469.0	7.3955e-07
469.2	7.4627e-07
469.4	7.5306e-07
469.6	7.599e-07
469.8	7.6681e-07
470.0	7.7378e-07
470.2	7.8081e-07
470.4	7.8791e-07
470.6	7.9486e-07
470.8	7.9854e-07
471.0	8.0224e-07
471.2	8.0596e-07
471.4	8.097e-07
471.6	8.1345e-07
471.8	8.1722e-07
472.0	8.2101e-07
472.2	8.2481e-07
472.4	8.2864e-07
472.6	8.3248e-07
472.8	8.3634e-07
473.0	8.4021e-07
473.2	8.4411e-07
473.4	8.4802e-07
473.6	8.5195e-07
473.8	8.559e-07
474.0	8.5987e-07
474.2	8.6385e-07
474.4	8.7002e-07
474.6	8.7787e-07
474.8	8.858e-07
475.0	8.9379e-07
475.2	9.0186e-07
475.4	9.1e-07
475.6	9.1822e-07
475.8	9.2651e-07
476.0	9.3487e-07
476.2	9.4331e-07
476.4	9.5183e-07
476.6	9.6042e-07
476.8	9.6909e-07
477.0	9.7784e-07
477.2	9.8667e-07
477.4	9.9558e-07
477.6	1.0046e-06
477.8	1.0136e-06
478.0	1.0227e-06
478.2	1.0309e-06
478.4	1.0391e-06
478.6	1.0474e-06
478.8	1.0557e-06
479.0	1.0642e-06
479.2	1.0726e-06
479.4	1.0812e-06
479.6	1.0898e-06
479.8	1.0985e-06
480.0	1.1073e-06
480.2	1.1161e-06
480.4	1.125e-06
480.6	1.134e-06
480.8	1.1431e-06
481.0	1.1522e-06
481.2	1.1614e-06
481.4	1.1707e-06
481.6	1.18e-06
481.8	1.1905e-06
482.0	1.2018e-06
482.2	1.2133e-06
482.4	1.2248e-06
482.6	1.2364e-06
482.8	1.2482e-06
483.0	1.2601e-06
483.2	1.2721e-06
483.4	1.2841e-06
483.6	1.2964e-06
483.8	1.3087e-06
484.0	1.3211e-06
484.2	1.3337e-06
484.4	1.3464e-06
484.6	1.3592e-06
484.8	1.3721e-06
485.0	1.3851e-06
485.2	1.3983e-06
485.4	1.4109e-06
485.6	1.4197e-06
485.8	1.4285e-06
486.0	1.4374e-06
486.2	1.4463e-06
486.4	1.4553e-06
486.6	1.4644e-06
486.8	1.4735e-06
487.0	1.4826e-06
487.2	1.4919e-06
487.4	1.5011e-06
487.6	1.5105e-06
487.8	1.5199e-06
488.0	1.5293e-06
488.2	1.5388e-06
488.4	1.5484e-06
488.6	1.558e-06
488.8	1.5677e-06
489.0	1.5775e-06
489.2	1.3889e-06
489.4	1.1565e-06
489.6	9.6292e-07
489.8	8.0176e-07
490.0	6.6758e-07
490.2	5.5585e-07
490.4	4.6282e-07
490.6	3.8536e-07
490.8	3.2087e-07
491.0	2.6716e-07
491.2	2.2245e-07
491.4	1.8522e-07
491.6	1.8259e-07
491.8	1.8419e-07
492.0	1.858e-07
492.2	1.8742e-07
492.4	1.8906e-07
492.6	1.9072e-07
492.8	1.9238e-07
493.0	1.9407e-07
493.2	1.9576e-07
493.4	1.9748e-07
493.6	1.9921e-07
493.8	2.0095e-07
494.0	2.0271e-07
494.2	2.0448e-07
494.4	2.0627e-07
494.6	2.0807e-07
494.8	2.0989e-07
495.0	2.1081e-07
495.2	2.0876e-07
495.4	2.0674e-07
495.6	2.0473e-07
495.8	2.0274e-07
496.0	2.0077e-07
496.2	1.9882e-07
496.4	1.9689e-07
496.6	1.9498e-07
496.8	1.9308e-07
497.0	1.9121e-07
497.2	1.8935e-07
497.4	1.8751e-07
497.6	1.8569e-07
497.8	1.8388e-07
498.0	1.821e-07
