Typical Measured Spectrum of Semrock FF01-514/30 Optical Filter	
For wavelengths between 320 and 1120 nm, values near or below 3e-7 (Optical Density 6.5) are measurement noise limited.
For wavelengths < 320 nm and > 1120 nm, values near or below 3e-6 (Optical Density 5.5) are measurement noise limited. 
Data format:  Wavelength (nm) <tab> Transmission (0 to 1)
270.0	8.0142e-06
270.2	6.9092e-06
270.4	5.9565e-06
270.6	5.1352e-06
270.8	4.4272e-06
271.0	3.8168e-06
271.2	3.2905e-06
271.4	2.8368e-06
271.6	2.4457e-06
271.8	2.1085e-06
272.0	2.0846e-06
272.2	2.0653e-06
272.4	2.0462e-06
272.6	2.0272e-06
272.8	2.0085e-06
273.0	1.9899e-06
273.2	1.9714e-06
273.4	1.9532e-06
273.6	1.9351e-06
273.8	1.9172e-06
274.0	1.8874e-06
274.2	1.8549e-06
274.4	1.8228e-06
274.6	1.7914e-06
274.8	1.7605e-06
275.0	1.7301e-06
275.2	1.7002e-06
275.4	1.6708e-06
275.6	1.642e-06
275.8	1.6137e-06
276.0	1.5905e-06
276.2	1.5712e-06
276.4	1.5521e-06
276.6	1.5333e-06
276.8	1.5147e-06
277.0	1.4963e-06
277.2	1.4781e-06
277.4	1.4601e-06
277.6	1.4424e-06
277.8	1.4249e-06
278.0	1.4855e-06
278.2	1.694e-06
278.4	1.9318e-06
278.6	2.203e-06
278.8	2.5123e-06
279.0	2.865e-06
279.2	3.2672e-06
279.4	3.7258e-06
279.6	4.2489e-06
279.8	4.8454e-06
280.0	5.5009e-06
280.2	5.969e-06
280.4	6.4769e-06
280.6	7.0281e-06
280.8	7.6261e-06
281.0	8.2751e-06
281.2	8.9792e-06
281.4	9.7433e-06
281.6	1.0572e-05
281.8	1.1472e-05
282.0	8.9674e-06
282.2	6.9509e-06
282.4	5.3879e-06
282.6	4.1763e-06
282.8	3.2372e-06
283.0	2.5092e-06
283.2	1.945e-06
283.4	1.5076e-06
283.6	1.1686e-06
283.8	9.0582e-07
284.0	8.8681e-07
284.2	9.2911e-07
284.4	9.7342e-07
284.6	1.0198e-06
284.8	1.0685e-06
285.0	1.1194e-06
285.2	1.1728e-06
285.4	1.2288e-06
285.6	1.2874e-06
285.8	1.3488e-06
286.0	1.4642e-06
286.2	1.6308e-06
286.4	1.8164e-06
286.6	2.0232e-06
286.8	2.2534e-06
287.0	2.5099e-06
287.2	2.7956e-06
287.4	3.1137e-06
287.6	3.4681e-06
287.8	3.8628e-06
288.0	4.2179e-06
288.2	4.4618e-06
288.4	4.7197e-06
288.6	4.9926e-06
288.8	5.2813e-06
289.0	5.5866e-06
289.2	5.9096e-06
289.4	6.2513e-06
289.6	6.6127e-06
289.8	6.9951e-06
290.0	7.1856e-06
290.2	5.582e-06
290.4	4.3362e-06
290.6	3.3685e-06
290.8	2.6167e-06
291.0	2.0327e-06
291.2	1.5791e-06
291.4	1.2267e-06
291.6	9.5291e-07
291.8	7.4024e-07
292.0	8.6367e-07
292.2	1.0227e-06
292.4	1.2109e-06
292.6	1.4338e-06
292.8	1.6978e-06
293.0	2.0103e-06
293.2	2.3803e-06
293.4	2.8185e-06
293.6	3.3373e-06
293.8	3.9517e-06
294.0	3.5025e-06
294.2	2.847e-06
294.4	2.3143e-06
294.6	1.8812e-06
294.8	1.5291e-06
295.0	1.243e-06
295.2	1.0104e-06
295.4	8.213e-07
295.6	6.6761e-07
295.8	5.4267e-07
296.0	4.9437e-07
296.2	4.8911e-07
296.4	4.8391e-07
296.6	4.7876e-07
296.8	4.7367e-07
297.0	4.6863e-07
297.2	4.6364e-07
297.4	4.5871e-07
297.6	4.5383e-07
297.8	4.49e-07
298.0	4.6424e-07
298.2	5.1424e-07
298.4	5.6963e-07
298.6	6.3098e-07
298.8	6.9894e-07
299.0	7.7422e-07
299.2	8.5761e-07
299.4	9.4998e-07
299.6	1.0523e-06
299.8	1.1656e-06
300.0	1.2749e-06
300.2	1.2514e-06
300.4	1.2283e-06
300.6	1.2056e-06
300.8	1.1834e-06
301.0	1.1615e-06
301.2	1.1401e-06
301.4	1.1191e-06
301.6	1.0984e-06
301.8	1.0781e-06
302.0	8.9853e-07
302.2	7.4176e-07
302.4	6.1233e-07
302.6	5.0549e-07
302.8	4.1729e-07
303.0	3.4448e-07
303.2	2.8438e-07
303.4	2.3476e-07
303.6	1.938e-07
303.8	1.5998e-07
304.0	1.5147e-07
304.2	1.4976e-07
304.4	1.4806e-07
304.6	1.4639e-07
304.8	1.4473e-07
305.0	1.431e-07
305.2	1.4148e-07
305.4	1.3988e-07
305.6	1.3829e-07
305.8	1.3673e-07
306.0	1.3549e-07
306.2	1.3449e-07
306.4	1.3349e-07
306.6	1.3251e-07
306.8	1.3153e-07
307.0	1.3056e-07
307.2	1.2959e-07
307.4	1.2863e-07
307.6	1.2768e-07
307.8	1.2674e-07
308.0	1.3377e-07
308.2	1.5542e-07
308.4	1.8058e-07
308.6	2.0981e-07
308.8	2.4377e-07
309.0	2.8323e-07
309.2	3.2907e-07
309.4	3.8234e-07
309.6	4.4423e-07
309.8	5.1614e-07
310.0	5.8016e-07
310.2	4.9182e-07
310.4	4.1693e-07
310.6	3.5344e-07
310.8	2.9962e-07
311.0	2.54e-07
311.2	2.1532e-07
311.4	1.8254e-07
311.6	1.5474e-07
311.8	1.3118e-07
312.0	1.2867e-07
312.2	1.2719e-07
312.4	1.2572e-07
312.6	1.2427e-07
312.8	1.2284e-07
313.0	1.2142e-07
313.2	1.2002e-07
313.4	1.1863e-07
313.6	1.1726e-07
313.8	1.1591e-07
314.0	1.1542e-07
314.2	1.1519e-07
314.4	1.1496e-07
314.6	1.1474e-07
314.8	1.1451e-07
315.0	1.1429e-07
315.2	1.1406e-07
315.4	1.1383e-07
315.6	1.1361e-07
315.8	1.1339e-07
316.0	1.1298e-07
316.2	1.1245e-07
316.4	1.1193e-07
316.6	1.1141e-07
316.8	1.1089e-07
317.0	1.1037e-07
317.2	1.0986e-07
317.4	1.0934e-07
317.6	1.0883e-07
317.8	1.0833e-07
318.0	1.1633e-07
318.2	1.3935e-07
318.4	1.6694e-07
318.6	1.9998e-07
318.8	2.3956e-07
319.0	2.8698e-07
319.2	3.4378e-07
319.4	4.1182e-07
319.6	4.9333e-07
319.8	5.9097e-07
320.0	6.9634e-07
320.2	7.2686e-07
320.4	7.5872e-07
320.6	7.9197e-07
320.8	8.2668e-07
321.0	8.6292e-07
321.2	9.0074e-07
321.4	9.4021e-07
321.6	9.8142e-07
321.8	1.0244e-06
322.0	1.0537e-06
322.2	1.0824e-06
322.4	1.1119e-06
322.6	1.1423e-06
322.8	1.1734e-06
323.0	1.2054e-06
323.2	1.2383e-06
323.4	1.2721e-06
323.6	1.3068e-06
323.8	1.3425e-06
324.0	1.3232e-06
324.2	1.2863e-06
324.4	1.2504e-06
324.6	1.2156e-06
324.8	1.1817e-06
325.0	1.1487e-06
325.2	1.1167e-06
325.4	1.0856e-06
325.6	1.0553e-06
325.8	1.0259e-06
326.0	8.7535e-07
326.2	6.7828e-07
326.4	5.2558e-07
326.6	4.0726e-07
326.8	3.1557e-07
327.0	2.4453e-07
327.2	1.8948e-07
327.4	1.4682e-07
327.6	1.1377e-07
327.8	8.8156e-08
328.0	8.3411e-08
328.2	1.0584e-07
328.4	1.3429e-07
328.6	1.7039e-07
328.8	2.162e-07
329.0	2.7433e-07
329.2	3.4808e-07
329.4	4.4166e-07
329.6	5.6039e-07
329.8	7.1105e-07
330.0	8.7924e-07
330.2	8.9977e-07
330.4	9.2078e-07
330.6	9.4228e-07
330.8	9.6429e-07
331.0	9.8681e-07
331.2	1.0098e-06
331.4	1.0334e-06
331.6	1.0576e-06
331.8	1.0823e-06
332.0	8.2645e-07
332.2	6.1309e-07
332.4	4.5481e-07
332.6	3.374e-07
332.8	2.5029e-07
333.0	1.8568e-07
333.2	1.3774e-07
333.4	1.0218e-07
333.6	7.5802e-08
333.8	5.6233e-08
334.0	5.8895e-08
334.2	6.963e-08
334.4	8.2322e-08
334.6	9.7327e-08
334.8	1.1507e-07
335.0	1.3604e-07
335.2	1.6084e-07
335.4	1.9015e-07
335.6	2.2481e-07
335.8	2.6579e-07
336.0	2.9851e-07
336.2	3.2278e-07
336.4	3.4902e-07
336.6	3.774e-07
336.8	4.0809e-07
337.0	4.4127e-07
337.2	4.7714e-07
337.4	5.1594e-07
337.6	5.5789e-07
337.8	6.0324e-07
338.0	5.7281e-07
338.2	4.5116e-07
338.4	3.5535e-07
338.6	2.7988e-07
338.8	2.2044e-07
339.0	1.7362e-07
339.2	1.3675e-07
339.4	1.0771e-07
339.6	8.4833e-08
339.8	6.6816e-08
340.0	5.552e-08
340.2	6.7101e-08
340.4	8.1097e-08
340.6	9.8013e-08
340.8	1.1846e-07
341.0	1.4317e-07
341.2	1.7303e-07
341.4	2.0912e-07
341.6	2.5274e-07
341.8	3.0546e-07
342.0	2.5343e-07
342.2	2.0259e-07
342.4	1.6194e-07
342.6	1.2945e-07
342.8	1.0348e-07
343.0	8.2717e-08
343.2	6.6122e-08
343.4	5.2856e-08
343.6	4.2251e-08
343.8	3.3774e-08
344.0	3.1754e-08
344.2	3.1561e-08
344.4	3.1368e-08
344.6	3.1177e-08
344.8	3.0986e-08
345.0	3.0797e-08
345.2	3.0609e-08
345.4	3.0423e-08
345.6	3.0237e-08
345.8	3.0053e-08
346.0	3.3203e-08
346.2	3.9543e-08
346.4	4.7093e-08
346.6	5.6086e-08
346.8	6.6795e-08
347.0	7.955e-08
347.2	9.4739e-08
347.4	1.1283e-07
347.6	1.3437e-07
347.8	1.6003e-07
348.0	1.8105e-07
348.2	1.9109e-07
348.4	2.0167e-07
348.6	2.1285e-07
348.8	2.2465e-07
349.0	2.371e-07
349.2	2.5024e-07
349.4	2.641e-07
349.6	2.7874e-07
349.8	2.9419e-07
350.0	3.1091e-07
350.2	3.3145e-07
350.4	3.5334e-07
350.6	3.7667e-07
350.8	4.0155e-07
351.0	4.2807e-07
351.2	4.5634e-07
351.4	4.8647e-07
351.6	5.186e-07
351.8	5.5285e-07
352.0	4.3739e-07
352.2	3.316e-07
352.4	2.514e-07
352.6	1.906e-07
352.8	1.445e-07
353.0	1.0955e-07
353.2	8.3056e-08
353.4	6.2969e-08
353.6	4.7739e-08
353.8	3.6193e-08
354.0	4.0106e-08
354.2	5.151e-08
354.4	6.6157e-08
354.6	8.4968e-08
354.8	1.0913e-07
355.0	1.4016e-07
355.2	1.8001e-07
355.4	2.312e-07
355.6	2.9694e-07
355.8	3.8137e-07
356.0	4.522e-07
356.2	5.0419e-07
356.4	5.6215e-07
356.6	6.2678e-07
356.8	6.9884e-07
357.0	7.7919e-07
357.2	8.6877e-07
357.4	9.6865e-07
357.6	1.08e-06
357.8	1.2042e-06
358.0	1.2434e-06
358.2	1.1522e-06
358.4	1.0677e-06
358.6	9.8939e-07
358.8	9.1683e-07
359.0	8.4958e-07
359.2	7.8727e-07
359.4	7.2953e-07
359.6	6.7602e-07
359.8	6.2644e-07
360.0	5.9563e-07
360.2	6.7281e-07
360.4	7.5999e-07
360.6	8.5847e-07
360.8	9.6971e-07
361.0	1.0954e-06
361.2	1.2373e-06
361.4	1.3976e-06
361.6	1.5787e-06
361.8	1.7833e-06
362.0	1.8434e-06
362.2	1.8857e-06
362.4	1.9291e-06
362.6	1.9734e-06
362.8	2.0188e-06
363.0	2.0652e-06
363.2	2.1126e-06
363.4	2.1612e-06
363.6	2.2108e-06
363.8	2.2617e-06
364.0	2.2311e-06
364.2	2.1737e-06
364.4	2.1178e-06
364.6	2.0634e-06
364.8	2.0103e-06
365.0	1.9586e-06
365.2	1.9083e-06
365.4	1.8592e-06
365.6	1.8114e-06
365.8	1.7648e-06
366.0	1.6948e-06
366.2	1.6117e-06
366.4	1.5326e-06
366.6	1.4575e-06
366.8	1.386e-06
367.0	1.318e-06
367.2	1.2533e-06
367.4	1.1919e-06
367.6	1.1334e-06
367.8	1.0778e-06
368.0	1.0775e-06
368.2	1.145e-06
368.4	1.2168e-06
368.6	1.293e-06
368.8	1.3741e-06
369.0	1.4602e-06
369.2	1.5517e-06
369.4	1.649e-06
369.6	1.7524e-06
369.8	1.8622e-06
370.0	1.9934e-06
370.2	2.2206e-06
370.4	2.4737e-06
370.6	2.7557e-06
370.8	3.0698e-06
371.0	3.4197e-06
371.2	3.8095e-06
371.4	4.2437e-06
371.6	4.7274e-06
371.8	5.2662e-06
372.0	5.1792e-06
372.2	4.9955e-06
372.4	4.8183e-06
372.6	4.6475e-06
372.8	4.4827e-06
373.0	4.3237e-06
373.2	4.1703e-06
373.4	4.0224e-06
373.6	3.8798e-06
373.8	3.7422e-06
374.0	3.7315e-06
374.2	3.768e-06
374.4	3.8049e-06
374.6	3.8421e-06
374.8	3.8797e-06
375.0	3.9176e-06
375.2	3.956e-06
375.4	3.9947e-06
375.6	4.0338e-06
375.8	4.0732e-06
376.0	3.7217e-06
376.2	3.1629e-06
376.4	2.6881e-06
376.6	2.2845e-06
376.8	1.9415e-06
377.0	1.65e-06
377.2	1.4023e-06
377.4	1.1918e-06
377.6	1.0128e-06
377.8	8.6077e-07
378.0	8.1808e-07
378.2	8.964e-07
378.4	9.8222e-07
378.6	1.0763e-06
378.8	1.1793e-06
379.0	1.2922e-06
379.2	1.4159e-06
379.4	1.5515e-06
379.6	1.7e-06
379.8	1.8628e-06
380.0	2.0029e-06
380.2	1.9349e-06
380.4	1.8692e-06
380.6	1.8057e-06
380.8	1.7444e-06
381.0	1.6851e-06
381.2	1.6279e-06
381.4	1.5726e-06
381.6	1.5192e-06
381.8	1.4676e-06
382.0	1.4377e-06
382.2	1.4116e-06
382.4	1.386e-06
382.6	1.3608e-06
382.8	1.3361e-06
383.0	1.3119e-06
383.2	1.2881e-06
383.4	1.2647e-06
383.6	1.2417e-06
383.8	1.2192e-06
384.0	1.2247e-06
384.2	1.2411e-06
384.4	1.2578e-06
384.6	1.2747e-06
384.8	1.2918e-06
385.0	1.3091e-06
385.2	1.3267e-06
385.4	1.3445e-06
385.6	1.3626e-06
385.8	1.3809e-06
386.0	1.4057e-06
386.2	1.4354e-06
386.4	1.4658e-06
386.6	1.4968e-06
386.8	1.5285e-06
387.0	1.5609e-06
387.2	1.5939e-06
387.4	1.6276e-06
387.6	1.6621e-06
387.8	1.6973e-06
388.0	1.7487e-06
388.2	1.821e-06
388.4	1.8963e-06
388.6	1.9747e-06
388.8	2.0563e-06
389.0	2.1414e-06
389.2	2.2299e-06
389.4	2.3221e-06
389.6	2.4181e-06
389.8	2.5181e-06
390.0	2.6153e-06
390.2	2.6787e-06
390.4	2.7436e-06
390.6	2.8101e-06
390.8	2.8783e-06
391.0	2.948e-06
391.2	3.0195e-06
391.4	3.0927e-06
391.6	3.1676e-06
391.8	3.2444e-06
392.0	3.2349e-06
392.2	3.2095e-06
392.4	3.1843e-06
392.6	3.1592e-06
392.8	3.1344e-06
393.0	3.1098e-06
393.2	3.0854e-06
393.4	3.0612e-06
393.6	3.0371e-06
393.8	3.0133e-06
394.0	3.0461e-06
394.2	3.1029e-06
394.4	3.1609e-06
394.6	3.2198e-06
394.8	3.2799e-06
395.0	3.3412e-06
395.2	3.4035e-06
395.4	3.467e-06
395.6	3.5317e-06
395.8	3.5976e-06
396.0	3.5606e-06
396.2	3.4526e-06
396.4	3.3479e-06
396.6	3.2464e-06
396.8	3.148e-06
397.0	3.0525e-06
397.2	2.9599e-06
397.4	2.8702e-06
397.6	2.7831e-06
397.8	2.6987e-06
398.0	2.615e-06
398.2	2.5319e-06
398.4	2.4513e-06
398.6	2.3734e-06
398.8	2.2979e-06
399.0	2.2248e-06
399.2	2.154e-06
399.4	2.0855e-06
399.6	2.0191e-06
399.8	1.9549e-06
400.0	1.9281e-06
400.2	2.0884e-06
400.4	2.262e-06
400.6	2.45e-06
400.8	2.6536e-06
401.0	2.8742e-06
401.2	3.1131e-06
401.4	3.3719e-06
401.6	3.6521e-06
401.8	3.9557e-06
402.0	4.0221e-06
402.2	4.0407e-06
402.4	4.0593e-06
402.6	4.0781e-06
402.8	4.0969e-06
403.0	4.1158e-06
403.2	4.1348e-06
403.4	4.1539e-06
403.6	4.1731e-06
403.8	4.1924e-06
404.0	4.1935e-06
404.2	4.1873e-06
404.4	4.1811e-06
404.6	4.1749e-06
404.8	4.1688e-06
405.0	4.1626e-06
405.2	4.1565e-06
405.4	4.1503e-06
405.6	4.1442e-06
405.8	4.1381e-06
406.0	4.1407e-06
406.2	4.1495e-06
406.4	4.1583e-06
406.6	4.1672e-06
406.8	4.176e-06
407.0	4.1849e-06
407.2	4.1938e-06
407.4	4.2027e-06
407.6	4.2116e-06
407.8	4.2205e-06
408.0	4.1978e-06
408.2	4.1398e-06
408.4	4.0827e-06
408.6	4.0263e-06
408.8	3.9708e-06
409.0	3.9159e-06
409.2	3.8619e-06
409.4	3.8086e-06
409.6	3.756e-06
409.8	3.7042e-06
410.0	3.6761e-06
410.2	3.7583e-06
410.4	3.8422e-06
410.6	3.9281e-06
410.8	4.0159e-06
411.0	4.1056e-06
411.2	4.1973e-06
411.4	4.2911e-06
411.6	4.3869e-06
411.8	4.485e-06
412.0	4.5965e-06
412.2	4.7132e-06
412.4	4.8327e-06
412.6	4.9554e-06
412.8	5.0811e-06
413.0	5.21e-06
413.2	5.3422e-06
413.4	5.4778e-06
413.6	5.6168e-06
413.8	5.7593e-06
414.0	5.8243e-06
414.2	5.8575e-06
414.4	5.891e-06
414.6	5.9246e-06
414.8	5.9584e-06
415.0	5.9925e-06
415.2	6.0267e-06
415.4	6.0611e-06
415.6	6.0957e-06
415.8	6.1305e-06
416.0	6.1748e-06
416.2	6.2259e-06
416.4	6.2774e-06
416.6	6.3293e-06
416.8	6.3817e-06
417.0	6.4344e-06
417.2	6.4877e-06
417.4	6.5413e-06
417.6	6.5954e-06
417.8	6.65e-06
418.0	6.699e-06
418.2	6.7418e-06
418.4	6.7849e-06
418.6	6.8282e-06
418.8	6.8719e-06
419.0	6.9158e-06
419.2	6.96e-06
419.4	7.0045e-06
419.6	7.0493e-06
419.8	7.0943e-06
420.0	1.1957e-06
420.2	1.073e-06
420.4	9.6298e-07
420.6	1.0091e-06
420.8	1.06e-06
421.0	1.1281e-06
421.2	1.2194e-06
421.4	1.3181e-06
421.6	1.4791e-06
421.8	1.655e-06
422.0	1.3942e-06
422.2	1.1745e-06
422.4	1.2265e-06
422.6	1.6167e-06
422.8	2.1309e-06
423.0	1.5852e-06
423.2	1.1792e-06
423.4	1.4559e-06
423.6	1.8162e-06
423.8	2.0056e-06
424.0	1.9081e-06
424.2	1.8154e-06
424.4	1.4518e-06
424.6	1.1611e-06
424.8	1.2873e-06
425.0	1.4273e-06
425.2	1.5219e-06
425.4	1.5529e-06
425.6	1.5845e-06
425.8	1.6355e-06
426.0	1.69e-06
426.2	1.8414e-06
426.4	2.0063e-06
426.6	1.9761e-06
426.8	1.7522e-06
427.0	1.5537e-06
427.2	1.5012e-06
427.4	1.4505e-06
427.6	1.4958e-06
427.8	1.5429e-06
428.0	1.6691e-06
428.2	1.9051e-06
428.4	2.1743e-06
428.6	2.0775e-06
428.8	1.9874e-06
429.0	2.0551e-06
429.2	2.1252e-06
429.4	2.0851e-06
429.6	1.9369e-06
429.8	1.7993e-06
430.0	1.5721e-06
430.2	1.3736e-06
430.4	1.5931e-06
430.6	1.8529e-06
430.8	2.0434e-06
431.0	2.1198e-06
431.2	2.199e-06
431.4	2.4558e-06
431.6	2.7362e-06
431.8	2.6206e-06
432.0	2.5099e-06
432.2	2.356e-06
432.4	2.1657e-06
432.6	1.9908e-06
432.8	2.0578e-06
433.0	2.127e-06
433.2	2.1374e-06
433.4	2.1475e-06
433.6	2.1697e-06
433.8	2.232e-06
434.0	2.2961e-06
434.2	2.2117e-06
434.4	2.1297e-06
434.6	1.4398e-06
434.8	6.427e-07
435.0	2.8688e-07
435.2	1.6185e-07
435.4	1.0447e-07
435.6	6.7445e-08
435.8	4.359e-08
436.0	2.8172e-08
436.2	3.8489e-08
436.4	9.0418e-08
436.6	1.4026e-07
436.8	1.4003e-07
437.0	1.398e-07
437.2	7.0677e-08
437.4	3.4733e-08
437.6	2.3157e-08
437.8	2.3135e-08
438.0	2.3107e-08
438.2	2.3066e-08
438.4	2.3026e-08
438.6	3.7392e-08
438.8	7.0515e-08
439.0	1.1169e-07
439.2	1.0024e-07
439.4	9.4344e-08
439.6	1.1752e-07
439.8	1.4639e-07
440.0	1.4634e-07
440.2	1.2785e-07
440.4	1.1393e-07
440.6	1.2413e-07
440.8	1.3524e-07
441.0	1.2566e-07
441.2	1.1667e-07
441.4	9.4521e-08
441.6	6.5674e-08
441.8	4.563e-08
442.0	9.5831e-08
442.2	2.1598e-07
442.4	2.1022e-07
442.6	1.754e-07
442.8	1.5975e-07
443.0	1.7607e-07
443.2	1.9406e-07
443.4	8.6576e-08
443.6	3.0371e-08
443.8	4.3211e-08
444.0	1.1533e-07
444.2	2.6551e-07
444.4	2.8938e-07
444.6	3.1539e-07
444.8	2.8751e-07
445.0	2.3653e-07
445.2	1.8614e-07
445.4	1.4116e-07
445.6	1.0779e-07
445.8	1.2949e-07
446.0	1.5556e-07
446.2	1.7545e-07
446.4	1.853e-07
446.6	1.9454e-07
446.8	2.0236e-07
447.0	2.1049e-07
447.2	1.5423e-07
447.4	1.0699e-07
447.6	6.6776e-08
447.8	3.3941e-08
448.0	2.6438e-08
448.2	6.0096e-08
448.4	1.3661e-07
448.6	1.7757e-07
448.8	1.9348e-07
449.0	2.125e-07
449.2	2.3975e-07
449.4	2.6567e-07
449.6	2.4796e-07
449.8	2.3144e-07
450.0	2.088e-07
450.2	1.8352e-07
450.4	1.6282e-07
450.6	1.8113e-07
450.8	2.015e-07
451.0	2.1598e-07
451.2	2.3138e-07
451.4	1.864e-07
451.6	1.0747e-07
451.8	6.1966e-08
452.0	1.0048e-07
452.2	1.761e-07
452.4	2.036e-07
452.6	2.1075e-07
452.8	2.1149e-07
453.0	1.9474e-07
453.2	1.7931e-07
453.4	1.8205e-07
453.6	1.9129e-07
453.8	1.8254e-07
454.0	1.6665e-07
454.2	1.5298e-07
454.4	1.4474e-07
454.6	1.3695e-07
454.8	9.279e-08
455.0	5.1676e-08
455.2	4.9811e-08
455.4	8.5967e-08
455.6	1.4837e-07
455.8	1.5116e-07
456.0	1.5067e-07
456.2	1.4611e-07
456.4	1.3672e-07
456.6	1.47e-07
456.8	1.9822e-07
457.0	2.673e-07
457.2	2.5817e-07
457.4	2.3563e-07
457.6	1.986e-07
457.8	1.424e-07
458.0	1.0848e-07
458.2	1.0062e-07
458.4	9.3331e-08
458.6	1.0752e-07
458.8	1.3534e-07
459.0	1.632e-07
459.2	1.6291e-07
459.4	1.5774e-07
459.6	6.5884e-08
459.8	2.7518e-08
460.0	2.2369e-08
460.2	3.4477e-08
460.4	5.3138e-08
460.6	8.5355e-08
460.8	1.3719e-07
461.0	1.4175e-07
461.2	1.413e-07
461.4	1.4596e-07
461.6	1.5906e-07
461.8	1.7333e-07
462.0	1.8875e-07
462.2	2.0552e-07
462.4	2.2832e-07
462.6	2.5513e-07
462.8	2.6173e-07
463.0	2.0777e-07
463.2	1.6494e-07
463.4	7.2427e-08
463.6	2.5406e-08
463.8	1.7119e-08
464.0	1.7064e-08
464.2	1.8557e-08
464.4	4.4172e-08
464.6	1.0515e-07
464.8	1.2164e-07
465.0	8.2542e-08
465.2	5.1801e-08
465.4	2.9818e-08
465.6	1.7164e-08
465.8	4.3774e-08
466.0	1.2074e-07
466.2	1.6914e-07
466.4	9.6536e-08
466.6	7.649e-08
466.8	1.217e-07
467.0	1.9364e-07
467.2	1.7419e-07
467.4	1.3588e-07
467.6	1.1542e-07
467.8	1.2275e-07
468.0	1.3268e-07
468.2	1.5529e-07
468.4	1.8174e-07
468.6	1.0106e-07
468.8	3.7647e-08
469.0	1.6934e-08
469.2	2.8516e-08
469.4	4.7109e-08
469.6	3.0404e-08
469.8	1.9623e-08
470.0	2.5557e-08
470.2	6.8129e-08
470.4	1.8162e-07
470.6	9.7134e-08
470.8	4.9433e-08
471.0	4.0056e-08
471.2	3.3986e-08
471.4	3.2685e-08
471.6	3.8238e-08
471.8	4.4734e-08
472.0	5.6784e-08
472.2	7.3004e-08
472.4	1.118e-07
472.6	1.7658e-07
472.8	2.2296e-07
473.0	1.7683e-07
473.2	1.4025e-07
473.4	1.6741e-07
473.6	2.2063e-07
473.8	2.1173e-07
474.0	1.8177e-07
474.2	1.5685e-07
474.4	1.3782e-07
474.6	1.211e-07
474.8	1.2093e-07
475.0	1.2774e-07
475.2	1.3672e-07
475.4	1.4748e-07
475.6	1.5552e-07
475.8	1.3656e-07
476.0	1.1991e-07
476.2	9.9271e-08
476.4	7.8817e-08
476.6	7.0489e-08
476.8	7.021e-08
477.0	6.9932e-08
477.2	8.3939e-08
477.4	1.0075e-07
477.6	6.8233e-08
477.8	2.4859e-08
478.0	1.7273e-08
478.2	2.9823e-08
478.4	5.149e-08
478.6	6.6275e-08
478.8	8.2417e-08
479.0	1.1201e-07
479.2	1.7649e-07
479.4	2.3177e-07
479.6	2.0285e-07
479.8	1.7755e-07
480.0	1.3512e-07
480.2	9.9073e-08
480.4	8.8843e-08
480.6	1.3924e-07
480.8	1.9568e-07
481.0	1.9474e-07
481.2	1.9381e-07
481.4	1.7673e-07
481.6	1.5563e-07
481.8	1.4456e-07
482.0	1.6742e-07
482.2	1.9145e-07
482.4	2.0038e-07
482.6	2.0973e-07
482.8	2.1296e-07
483.0	2.12e-07
483.2	2.1107e-07
483.4	2.1038e-07
483.6	2.0989e-07
483.8	2.2292e-07
484.0	2.3677e-07
484.2	2.0861e-07
484.4	1.5132e-07
484.6	1.0976e-07
484.8	1.3843e-07
485.0	1.776e-07
485.2	2.1716e-07
485.4	2.6479e-07
485.6	2.8529e-07
485.8	2.6001e-07
486.0	2.3697e-07
486.2	2.4897e-07
486.4	2.6551e-07
486.6	2.8185e-07
486.8	2.9893e-07
487.0	3.0468e-07
487.2	2.848e-07
487.4	2.6622e-07
487.6	2.7432e-07
487.8	2.9009e-07
488.0	3.1158e-07
488.2	3.3669e-07
488.4	3.5209e-07
488.6	3.2298e-07
488.8	2.9627e-07
489.0	2.7225e-07
489.2	2.5037e-07
489.4	2.7588e-07
489.6	3.4123e-07
489.8	4.1826e-07
490.0	4.6797e-07
490.2	5.2358e-07
490.4	5.6573e-07
490.6	5.9541e-07
490.8	6.8396e-07
491.0	8.4779e-07
491.2	1.0536e-06
491.4	1.5552e-06
491.6	2.2956e-06
491.8	3.5325e-06
492.0	5.6715e-06
492.2	9.2313e-06
492.4	1.5319e-05
492.6	2.5422e-05
492.8	4.4804e-05
493.0	7.9521e-05
493.2	1.4859e-04
493.4	3.0246e-04
493.6	5.5895e-04
493.8	0.00102
494.0	0.00198
494.2	0.00405
494.4	0.00855
494.6	0.0189
494.8	0.04368
495.0	0.09243
495.2	0.20726
495.4	0.41538
495.6	0.668
495.8	0.84884
496.0	0.93137
496.2	0.95746
496.4	0.97158
496.6	0.97645
496.8	0.98006
497.0	0.98149
497.2	0.9819
497.4	0.98037
497.6	0.97815
497.8	0.97604
498.0	0.97397
498.2	0.97161
498.4	0.96974
498.6	0.96873
498.8	0.96723
499.0	0.96642
499.2	0.96548
499.4	0.96443
499.6	0.96398
499.8	0.96386
500.0	0.96452
500.2	0.96628
500.4	0.96921
500.6	0.97317
500.8	0.97787
501.0	0.98228
501.2	0.98696
501.4	0.99099
501.6	0.99431
501.8	0.99585
502.0	0.99625
502.2	0.99548
502.4	0.99264
502.6	0.98769
502.8	0.98292
503.0	0.97651
503.2	0.9702
503.4	0.96351
503.6	0.95749
503.8	0.95287
