Typical Measured Spectrum of Semrock FF01-640/14 Optical Filter	
For wavelengths between 320 and 1120 nm, values near or below 3e-7 (Optical Density 6.5) are measurement noise limited.
For wavelengths < 320 nm and > 1120 nm, values near or below 3e-6 (Optical Density 5.5) are measurement noise limited. 
Data format:  Wavelength (nm) <tab> Transmission (0 to 1)
300.0	4.0119e-07
300.2	3.6956e-07
300.4	3.4043e-07
300.6	3.1359e-07
300.8	2.8887e-07
301.0	2.6609e-07
301.2	2.4511e-07
301.4	2.2579e-07
301.6	2.0799e-07
301.8	1.9159e-07
302.0	1.8873e-07
302.2	1.8597e-07
302.4	1.8325e-07
302.6	1.8057e-07
302.8	1.7793e-07
303.0	1.7533e-07
303.2	1.7277e-07
303.4	1.7025e-07
303.6	1.6776e-07
303.8	1.6531e-07
304.0	1.6351e-07
304.2	1.6189e-07
304.4	1.603e-07
304.6	1.5871e-07
304.8	1.5715e-07
305.0	1.556e-07
305.2	1.5406e-07
305.4	1.5254e-07
305.6	1.5103e-07
305.8	1.4954e-07
306.0	1.5789e-07
306.2	1.7479e-07
306.4	1.9351e-07
306.6	2.1424e-07
306.8	2.3718e-07
307.0	2.6258e-07
307.2	2.907e-07
307.4	3.2183e-07
307.6	3.5629e-07
307.8	3.9445e-07
308.0	4.2533e-07
308.2	4.3849e-07
308.4	4.5205e-07
308.6	4.6603e-07
308.8	4.8045e-07
309.0	4.9531e-07
309.2	5.1064e-07
309.4	5.2643e-07
309.6	5.4272e-07
309.8	5.5951e-07
310.0	5.6842e-07
310.2	4.8788e-07
310.4	4.1875e-07
310.6	3.5941e-07
310.8	3.0848e-07
311.0	2.6477e-07
311.2	2.2725e-07
311.4	1.9505e-07
311.6	1.6741e-07
311.8	1.4369e-07
312.0	1.6192e-07
312.2	1.8373e-07
312.4	2.0849e-07
312.6	2.3658e-07
312.8	2.6846e-07
313.0	3.0463e-07
313.2	3.4567e-07
313.4	3.9225e-07
313.6	4.451e-07
313.8	5.0507e-07
314.0	5.6749e-07
314.2	6.357e-07
314.4	7.121e-07
314.6	7.9769e-07
314.8	8.9357e-07
315.0	1.001e-06
315.2	1.1213e-06
315.4	1.256e-06
315.6	1.407e-06
315.8	1.5761e-06
316.0	1.4328e-06
316.2	1.1091e-06
316.4	8.5849e-07
316.6	6.6452e-07
316.8	5.1438e-07
317.0	3.9816e-07
317.2	3.082e-07
317.4	2.3856e-07
317.6	1.8466e-07
317.8	1.4294e-07
318.0	1.2489e-07
318.2	1.347e-07
318.4	1.4529e-07
318.6	1.5671e-07
318.8	1.6903e-07
319.0	1.8232e-07
319.2	1.9665e-07
319.4	2.1211e-07
319.6	2.2878e-07
319.8	2.4677e-07
320.0	2.6273e-07
320.2	2.4089e-07
320.4	2.2086e-07
320.6	2.025e-07
320.8	1.8567e-07
321.0	1.7023e-07
321.2	1.5608e-07
321.4	1.4311e-07
321.6	1.3121e-07
321.8	1.203e-07
322.0	1.1946e-07
322.2	1.1881e-07
322.4	1.1816e-07
322.6	1.1752e-07
322.8	1.1688e-07
323.0	1.1624e-07
323.2	1.1561e-07
323.4	1.1498e-07
323.6	1.1436e-07
323.8	1.1373e-07
324.0	1.1208e-07
324.2	1.1016e-07
324.4	1.0827e-07
324.6	1.0641e-07
324.8	1.0459e-07
325.0	1.028e-07
325.2	1.0104e-07
325.4	9.9304e-08
325.6	9.7602e-08
325.8	9.593e-08
326.0	9.4595e-08
326.2	9.35e-08
326.4	9.2418e-08
326.6	9.1348e-08
326.8	9.029e-08
327.0	8.9245e-08
327.2	8.8212e-08
327.4	8.7191e-08
327.6	8.6181e-08
327.8	8.5184e-08
328.0	8.7883e-08
328.2	9.709e-08
328.4	1.0726e-07
328.6	1.185e-07
328.8	1.3091e-07
329.0	1.4463e-07
329.2	1.5978e-07
329.4	1.7652e-07
329.6	1.9501e-07
329.8	2.1544e-07
330.0	2.3826e-07
330.2	2.6613e-07
330.4	2.9726e-07
330.6	3.3202e-07
330.8	3.7086e-07
331.0	4.1423e-07
331.2	4.6268e-07
331.4	5.168e-07
331.6	5.7724e-07
331.8	6.4476e-07
332.0	5.1938e-07
332.2	4.1125e-07
332.4	3.2563e-07
332.6	2.5784e-07
332.8	2.0416e-07
333.0	1.6165e-07
333.2	1.28e-07
333.4	1.0135e-07
333.6	8.0248e-08
333.8	6.3541e-08
334.0	7.4094e-08
334.2	9.7964e-08
334.4	1.2952e-07
334.6	1.7125e-07
334.8	2.2642e-07
335.0	2.9937e-07
335.2	3.9581e-07
335.4	5.2332e-07
335.6	6.9191e-07
335.8	9.1482e-07
336.0	8.7229e-07
336.2	6.4668e-07
336.4	4.7943e-07
336.6	3.5543e-07
336.8	2.635e-07
337.0	1.9535e-07
337.2	1.4483e-07
337.4	1.0737e-07
337.6	7.9599e-08
337.8	5.9012e-08
338.0	4.8755e-08
338.2	4.8253e-08
338.4	4.7755e-08
338.6	4.7263e-08
338.8	4.6776e-08
339.0	4.6293e-08
339.2	4.5816e-08
339.4	4.5344e-08
339.6	4.4876e-08
339.8	4.4413e-08
340.0	4.396e-08
340.2	4.3551e-08
340.4	4.3146e-08
340.6	4.2745e-08
340.8	4.2347e-08
341.0	4.1953e-08
341.2	4.1563e-08
341.4	4.1176e-08
341.6	4.0793e-08
341.8	4.0414e-08
342.0	4.6482e-08
342.2	5.4066e-08
342.4	6.2887e-08
342.6	7.3148e-08
342.8	8.5082e-08
343.0	9.8964e-08
343.2	1.1511e-07
343.4	1.3389e-07
343.6	1.5574e-07
343.8	1.8114e-07
344.0	1.6693e-07
344.2	1.4175e-07
344.4	1.2037e-07
344.6	1.0221e-07
344.8	8.6792e-08
345.0	7.37e-08
345.2	6.2582e-08
345.4	5.3142e-08
345.6	4.5126e-08
345.8	3.8318e-08
346.0	3.8918e-08
346.2	4.5629e-08
346.4	5.3497e-08
346.6	6.2721e-08
346.8	7.3537e-08
347.0	8.6217e-08
347.2	1.0108e-07
347.4	1.1851e-07
347.6	1.3895e-07
347.8	1.6291e-07
348.0	1.7022e-07
348.2	1.468e-07
348.4	1.266e-07
348.6	1.0918e-07
348.8	9.4157e-08
349.0	8.1201e-08
349.2	7.0028e-08
349.4	6.0392e-08
349.6	5.2082e-08
349.8	4.4915e-08
350.0	3.9308e-08
350.2	3.9567e-08
350.4	3.9828e-08
350.6	4.0091e-08
350.8	4.0356e-08
351.0	4.0622e-08
351.2	4.089e-08
351.4	4.116e-08
351.6	4.1431e-08
351.8	4.1705e-08
352.0	4.1592e-08
352.2	4.145e-08
352.4	4.1309e-08
352.6	4.1168e-08
352.8	4.1028e-08
353.0	4.0888e-08
353.2	4.0748e-08
353.4	4.0609e-08
353.6	4.0471e-08
353.8	4.0333e-08
354.0	4.0233e-08
354.2	4.0146e-08
354.4	4.0059e-08
354.6	3.9972e-08
354.8	3.9886e-08
355.0	3.9799e-08
355.2	3.9713e-08
355.4	3.9627e-08
355.6	3.9542e-08
355.8	3.9456e-08
356.0	3.9376e-08
356.2	3.9299e-08
356.4	3.9223e-08
356.6	3.9147e-08
356.8	3.9071e-08
357.0	3.8995e-08
357.2	3.892e-08
357.4	3.8844e-08
357.6	3.8769e-08
357.8	3.8694e-08
358.0	4.1736e-08
358.2	5.083e-08
358.4	6.1906e-08
358.6	7.5395e-08
358.8	9.1823e-08
359.0	1.1183e-07
359.2	1.362e-07
359.4	1.6587e-07
359.6	2.0202e-07
359.8	2.4603e-07
360.0	2.913e-07
360.2	2.711e-07
360.4	2.523e-07
360.6	2.3481e-07
360.8	2.1853e-07
361.0	2.0338e-07
361.2	1.8928e-07
361.4	1.7615e-07
361.6	1.6394e-07
361.8	1.5257e-07
362.0	1.334e-07
362.2	1.1618e-07
362.4	1.0117e-07
362.6	8.8109e-08
362.8	7.6731e-08
363.0	6.6823e-08
363.2	5.8194e-08
363.4	5.0679e-08
363.6	4.4135e-08
363.8	3.8436e-08
364.0	3.7143e-08
364.2	3.706e-08
364.4	3.6977e-08
364.6	3.6894e-08
364.8	3.6811e-08
365.0	3.6729e-08
365.2	3.6647e-08
365.4	3.6565e-08
365.6	3.6483e-08
365.8	3.6401e-08
366.0	3.8699e-08
366.2	4.2996e-08
366.4	4.7771e-08
366.6	5.3076e-08
366.8	5.897e-08
367.0	6.5519e-08
367.2	7.2795e-08
367.4	8.0878e-08
367.6	8.986e-08
367.8	9.9839e-08
368.0	1.0147e-07
368.2	9.0961e-08
368.4	8.1538e-08
368.6	7.3092e-08
368.8	6.5521e-08
369.0	5.8733e-08
369.2	5.2649e-08
369.4	4.7196e-08
369.6	4.2307e-08
369.8	3.7924e-08
370.0	3.4448e-08
370.2	3.4323e-08
370.4	3.4199e-08
370.6	3.4075e-08
370.8	3.3952e-08
371.0	3.3829e-08
371.2	3.3706e-08
371.4	3.3584e-08
371.6	3.3463e-08
371.8	3.3342e-08
372.0	3.9139e-08
372.2	4.647e-08
372.4	5.5175e-08
372.6	6.5511e-08
372.8	7.7783e-08
373.0	9.2354e-08
373.2	1.0965e-07
373.4	1.3019e-07
373.6	1.5458e-07
373.8	1.8354e-07
374.0	1.6645e-07
374.2	1.3896e-07
374.4	1.1601e-07
374.6	9.6851e-08
374.8	8.0856e-08
375.0	6.7502e-08
375.2	5.6354e-08
375.4	4.7047e-08
375.6	3.9277e-08
375.8	3.279e-08
376.0	3.3022e-08
376.2	3.7684e-08
376.4	4.3005e-08
376.6	4.9076e-08
376.8	5.6005e-08
377.0	6.3912e-08
377.2	7.2936e-08
377.4	8.3234e-08
377.6	9.4985e-08
377.8	1.084e-07
378.0	1.1752e-07
378.2	1.1905e-07
378.4	1.206e-07
378.6	1.2216e-07
378.8	1.2375e-07
379.0	1.2536e-07
379.2	1.2699e-07
379.4	1.2864e-07
379.6	1.3031e-07
379.8	1.32e-07
380.0	1.3594e-07
380.2	1.5563e-07
380.4	1.7817e-07
380.6	2.0398e-07
380.8	2.3352e-07
381.0	2.6734e-07
381.2	3.0605e-07
381.4	3.5038e-07
381.6	4.0112e-07
381.8	4.5921e-07
382.0	3.9381e-07
382.2	3.299e-07
382.4	2.7636e-07
382.6	2.3151e-07
382.8	1.9394e-07
383.0	1.6246e-07
383.2	1.361e-07
383.4	1.1401e-07
383.6	9.5508e-08
383.8	8.0009e-08
384.0	8.0394e-08
384.2	8.5556e-08
384.4	9.105e-08
384.6	9.6897e-08
384.8	1.0312e-07
385.0	1.0974e-07
385.2	1.1679e-07
385.4	1.2429e-07
385.6	1.3227e-07
385.8	1.4076e-07
386.0	1.5682e-07
386.2	1.8014e-07
386.4	2.0691e-07
386.6	2.3767e-07
386.8	2.73e-07
387.0	3.1358e-07
387.2	3.6019e-07
387.4	4.1373e-07
387.6	4.7523e-07
387.8	5.4588e-07
388.0	5.8342e-07
388.2	5.6891e-07
388.4	5.5475e-07
388.6	5.4095e-07
388.8	5.2749e-07
389.0	5.1437e-07
389.2	5.0157e-07
389.4	4.8909e-07
389.6	4.7692e-07
389.8	4.6505e-07
390.0	4.5555e-07
390.2	4.589e-07
390.4	4.6227e-07
390.6	4.6567e-07
390.8	4.6909e-07
391.0	4.7254e-07
391.2	4.7601e-07
391.4	4.7951e-07
391.6	4.8303e-07
391.8	4.8658e-07
392.0	4.5841e-07
392.2	4.2919e-07
392.4	4.0184e-07
392.6	3.7623e-07
392.8	3.5225e-07
393.0	3.298e-07
393.2	3.0878e-07
393.4	2.891e-07
393.6	2.7067e-07
393.8	2.5342e-07
394.0	2.5848e-07
394.2	2.7086e-07
394.4	2.8384e-07
394.6	2.9744e-07
394.8	3.1168e-07
395.0	3.2662e-07
395.2	3.4226e-07
395.4	3.5866e-07
395.6	3.7584e-07
395.8	3.9385e-07
396.0	3.7383e-07
396.2	3.3219e-07
396.4	2.9518e-07
396.6	2.623e-07
396.8	2.3308e-07
397.0	2.0711e-07
397.2	1.8404e-07
397.4	1.6354e-07
397.6	1.4532e-07
397.8	1.2913e-07
398.0	1.2072e-07
398.2	1.2008e-07
398.4	1.1945e-07
398.6	1.1882e-07
398.8	1.182e-07
399.0	1.1757e-07
399.2	1.1695e-07
399.4	1.1634e-07
399.6	1.1572e-07
399.8	1.1511e-07
400.0	1.1095e-07
400.2	8.9421e-08
400.4	7.207e-08
400.6	5.8086e-08
400.8	4.6816e-08
401.0	3.7732e-08
401.2	3.0411e-08
401.4	2.451e-08
401.6	1.9754e-08
401.8	1.5921e-08
402.0	1.8281e-08
402.2	2.2027e-08
402.4	2.6542e-08
402.6	3.1982e-08
402.8	3.8537e-08
403.0	4.6435e-08
403.2	5.5952e-08
403.4	6.742e-08
403.6	8.1238e-08
403.8	9.7888e-08
404.0	9.3774e-08
404.2	8.2526e-08
404.4	7.2628e-08
404.6	6.3916e-08
404.8	5.625e-08
405.0	4.9503e-08
405.2	4.3565e-08
405.4	3.834e-08
405.6	3.3741e-08
405.8	2.9694e-08
406.0	3.0951e-08
406.2	3.6467e-08
406.4	4.2967e-08
406.6	5.0624e-08
406.8	5.9647e-08
407.0	7.0277e-08
407.2	8.2802e-08
407.4	9.756e-08
407.6	1.1495e-07
407.8	1.3543e-07
408.0	1.4474e-07
408.2	1.3591e-07
408.4	1.2763e-07
408.6	1.1985e-07
408.8	1.1254e-07
409.0	1.0568e-07
409.2	9.9242e-08
409.4	9.3192e-08
409.6	8.7511e-08
409.8	8.2177e-08
410.0	7.5747e-08
410.2	6.229e-08
410.4	5.1223e-08
410.6	4.2123e-08
410.8	3.4639e-08
411.0	2.8485e-08
411.2	2.3424e-08
411.4	1.9263e-08
411.6	1.5841e-08
411.8	1.3026e-08
412.0	1.701e-08
412.2	2.3728e-08
412.4	3.3099e-08
412.6	4.6172e-08
412.8	6.4408e-08
413.0	8.9846e-08
413.2	1.2533e-07
413.4	1.7483e-07
413.6	2.4388e-07
413.8	3.4021e-07
414.0	3.4589e-07
414.2	3.1285e-07
414.4	2.8296e-07
414.6	2.5593e-07
414.8	2.3149e-07
415.0	2.0937e-07
415.2	1.8937e-07
415.4	1.7128e-07
415.6	1.5492e-07
415.8	1.4012e-07
416.0	1.2664e-07
416.2	1.144e-07
416.4	1.0334e-07
416.6	9.3354e-08
416.8	8.433e-08
417.0	7.6179e-08
417.2	6.8815e-08
417.4	6.2164e-08
417.6	5.6155e-08
417.8	5.0727e-08
418.0	4.9433e-08
418.2	5.2948e-08
418.4	5.6713e-08
418.6	6.0746e-08
418.8	6.5065e-08
419.0	6.9692e-08
419.2	7.4648e-08
419.4	7.9956e-08
419.6	8.5641e-08
419.8	9.1731e-08
420.0	9.6896e-08
420.2	9.4876e-08
420.4	9.2898e-08
420.6	9.0962e-08
420.8	8.9065e-08
421.0	8.7208e-08
421.2	8.539e-08
421.4	8.361e-08
421.6	8.1867e-08
421.8	8.016e-08
422.0	9.0442e-08
422.2	1.0385e-07
422.4	1.1924e-07
422.6	1.3691e-07
422.8	1.572e-07
423.0	1.805e-07
423.2	2.0726e-07
423.4	2.3797e-07
423.6	2.7324e-07
423.8	3.1374e-07
424.0	3.6024e-07
424.2	4.1363e-07
424.4	4.7494e-07
424.6	4.5519e-07
424.8	4.2515e-07
425.0	3.9709e-07
425.2	3.7088e-07
425.4	3.464e-07
425.6	3.2354e-07
425.8	3.0218e-07
426.0	2.8224e-07
426.2	2.6361e-07
426.4	2.4745e-07
426.6	2.359e-07
426.8	2.2489e-07
427.0	2.144e-07
427.2	2.0439e-07
427.4	1.9486e-07
427.6	1.8576e-07
427.8	1.7709e-07
428.0	1.6883e-07
428.2	1.6095e-07
428.4	1.5528e-07
428.6	1.6495e-07
428.8	1.7523e-07
429.0	1.8614e-07
429.2	1.9774e-07
429.4	2.1006e-07
429.6	2.2315e-07
429.8	2.3705e-07
430.0	2.5182e-07
430.2	2.675e-07
430.4	2.8417e-07
430.6	2.8988e-07
430.8	2.9539e-07
431.0	3.0101e-07
431.2	3.0673e-07
431.4	3.1256e-07
431.6	3.1851e-07
431.8	3.2457e-07
432.0	3.3074e-07
432.2	3.3703e-07
432.4	3.4344e-07
432.6	3.4997e-07
432.8	3.5663e-07
433.0	3.5795e-07
433.2	3.533e-07
433.4	3.4872e-07
433.6	3.442e-07
433.8	3.3974e-07
434.0	3.3533e-07
434.2	3.3098e-07
434.4	3.2669e-07
434.6	3.2245e-07
434.8	3.1827e-07
435.0	1.4781e-07
435.2	1.7857e-07
435.4	2.1572e-07
435.6	2.6059e-07
435.8	3.1481e-07
436.0	3.803e-07
436.2	4.5942e-07
436.4	5.5501e-07
436.6	6.7047e-07
436.8	8.0996e-07
437.0	9.7847e-07
437.2	9.3193e-07
437.4	8.8654e-07
437.6	8.4336e-07
437.8	8.0228e-07
438.0	7.6321e-07
438.2	7.2604e-07
438.4	6.9067e-07
438.6	6.5703e-07
438.8	6.2503e-07
439.0	5.9459e-07
439.2	5.2403e-07
439.4	4.5637e-07
439.6	3.9745e-07
439.8	3.4613e-07
440.0	3.0144e-07
440.2	2.6252e-07
440.4	2.2862e-07
440.6	1.991e-07
440.8	1.734e-07
441.0	1.5101e-07
441.2	1.4202e-07
441.4	1.3732e-07
441.6	1.3278e-07
441.8	1.2839e-07
442.0	1.2415e-07
442.2	1.2004e-07
442.4	1.1607e-07
442.6	1.1223e-07
442.8	1.0852e-07
443.0	1.0493e-07
443.2	9.6246e-08
443.4	8.5349e-08
443.6	7.5685e-08
443.8	6.7116e-08
444.0	5.9517e-08
444.2	5.2779e-08
444.4	4.6803e-08
444.6	4.1504e-08
444.8	3.6805e-08
445.0	3.2638e-08
445.2	3.3555e-08
445.4	3.4498e-08
445.6	3.5468e-08
445.8	3.6465e-08
446.0	3.749e-08
446.2	3.8544e-08
446.4	3.9627e-08
446.6	4.0741e-08
446.8	4.1887e-08
447.0	4.3064e-08
447.2	5.477e-08
447.4	6.9807e-08
447.6	8.8974e-08
447.8	1.134e-07
448.0	1.4454e-07
448.2	1.8422e-07
448.4	2.348e-07
448.6	2.9927e-07
448.8	3.8144e-07
449.0	4.8616e-07
449.2	4.9164e-07
449.4	4.7955e-07
449.6	4.6776e-07
449.8	4.5626e-07
450.0	4.4504e-07
450.2	4.341e-07
450.4	4.2342e-07
450.6	4.1301e-07
450.8	4.0285e-07
451.0	3.9295e-07
451.2	4.0171e-07
451.4	4.1751e-07
451.6	4.3392e-07
451.8	4.5098e-07
452.0	4.6871e-07
452.2	4.8714e-07
452.4	5.0629e-07
452.6	5.262e-07
452.8	5.4688e-07
453.0	5.6838e-07
453.2	5.4115e-07
453.4	4.8828e-07
453.6	4.4057e-07
453.8	3.9752e-07
454.0	3.5868e-07
454.2	3.2363e-07
454.4	2.9201e-07
454.6	2.6348e-07
454.8	2.3773e-07
455.0	2.145e-07
455.2	2.3359e-07
455.4	2.5438e-07
455.6	2.7701e-07
455.8	3.0166e-07
456.0	3.2851e-07
456.2	3.5774e-07
456.4	3.8957e-07
456.6	4.2423e-07
456.8	4.6198e-07
457.0	5.0272e-07
457.2	4.7149e-07
457.4	4.4221e-07
457.6	4.1475e-07
457.8	3.8899e-07
458.0	3.6483e-07
458.2	3.4217e-07
458.4	3.2092e-07
458.6	3.0099e-07
458.8	2.823e-07
459.0	2.6476e-07
459.2	2.5459e-07
459.4	2.4561e-07
459.6	2.3694e-07
459.8	2.2858e-07
460.0	2.2051e-07
460.2	2.1273e-07
460.4	2.0522e-07
460.6	1.9798e-07
460.8	1.9099e-07
461.0	1.8425e-07
461.2	1.7786e-07
461.4	1.7172e-07
461.6	1.6579e-07
461.8	1.6006e-07
462.0	1.5454e-07
462.2	1.492e-07
462.4	1.4405e-07
462.6	1.3908e-07
462.8	1.3427e-07
463.0	1.2964e-07
463.2	1.3485e-07
463.4	1.4589e-07
463.6	1.5783e-07
463.8	1.7076e-07
464.0	1.8474e-07
464.2	1.9986e-07
464.4	2.1623e-07
464.6	2.3393e-07
464.8	2.5308e-07
465.0	2.738e-07
465.2	3.1707e-07
465.4	3.6717e-07
465.6	4.2519e-07
465.8	4.9238e-07
466.0	5.7019e-07
466.2	6.6028e-07
466.4	7.6462e-07
466.6	8.8545e-07
466.8	1.0254e-06
467.0	1.1874e-06
467.2	1.1633e-06
467.4	1.1338e-06
467.6	1.1051e-06
467.8	1.0771e-06
468.0	1.0498e-06
468.2	1.0232e-06
468.4	9.9732e-07
468.6	9.7205e-07
468.8	9.4743e-07
469.0	9.2343e-07
469.2	7.3734e-07
469.4	5.6917e-07
469.6	4.3936e-07
469.8	3.3916e-07
470.0	2.6181e-07
470.2	2.021e-07
470.4	1.56e-07
470.6	1.2042e-07
470.8	9.2959e-08
471.0	7.1758e-08
471.2	5.6156e-08
471.4	4.4154e-08
471.6	3.4717e-08
471.8	2.7296e-08
472.0	2.1462e-08
472.2	1.6875e-08
472.4	1.3268e-08
472.6	1.0432e-08
472.8	8.2026e-09
473.0	6.4494e-09
473.2	5.7456e-09
473.4	5.4996e-09
473.6	5.2642e-09
473.8	5.0388e-09
474.0	4.823e-09
474.2	4.6165e-09
474.4	4.4189e-09
474.6	4.2297e-09
474.8	4.0486e-09
475.0	3.8753e-09
475.2	3.6192e-09
475.4	3.38e-09
475.6	3.1567e-09
475.8	2.9481e-09
476.0	2.7533e-09
476.2	2.5713e-09
476.4	2.4014e-09
476.6	2.2427e-09
476.8	2.0945e-09
477.0	1.9561e-09
477.2	1.9476e-09
477.4	1.9404e-09
477.6	1.9332e-09
477.8	1.9261e-09
478.0	1.9189e-09
478.2	1.9118e-09
478.4	1.9048e-09
478.6	1.8977e-09
478.8	1.8907e-09
479.0	1.8837e-09
479.2	1.8767e-09
479.4	1.8697e-09
479.6	1.8627e-09
479.8	1.8557e-09
480.0	1.8488e-09
480.2	1.8419e-09
480.4	1.835e-09
480.6	1.8282e-09
480.8	1.8213e-09
481.0	1.8146e-09
481.2	1.8076e-09
481.4	1.8006e-09
481.6	1.7937e-09
481.8	1.7868e-09
482.0	1.7799e-09
482.2	1.773e-09
482.4	1.7661e-09
482.6	1.7593e-09
482.8	1.7525e-09
483.0	1.7458e-09
483.2	1.7389e-09
483.4	1.7319e-09
483.6	1.725e-09
483.8	1.7181e-09
484.0	1.7112e-09
484.2	1.7044e-09
484.4	1.6975e-09
484.6	1.6907e-09
484.8	1.684e-09
485.0	1.6772e-09
485.2	1.7881e-09
485.4	1.9064e-09
485.6	2.0324e-09
485.8	2.1668e-09
486.0	2.3101e-09
486.2	2.4628e-09
486.4	2.6256e-09
486.6	2.7992e-09
486.8	2.9843e-09
487.0	3.1816e-09
487.2	3.4659e-09
487.4	3.7794e-09
487.6	4.1212e-09
487.8	4.4939e-09
488.0	4.9004e-09
488.2	5.3436e-09
488.4	5.8269e-09
488.6	6.3539e-09
488.8	6.9285e-09
489.0	7.5552e-09
489.2	8.2108e-09
489.4	8.9182e-09
489.6	9.6866e-09
489.8	1.0521e-08
490.0	1.1428e-08
490.2	1.2412e-08
490.4	1.3482e-08
490.6	1.4643e-08
490.8	1.5905e-08
491.0	1.7275e-08
491.2	1.7203e-08
491.4	1.6655e-08
491.6	1.6124e-08
491.8	1.5611e-08
492.0	1.5113e-08
492.2	1.4632e-08
492.4	1.4166e-08
492.6	1.3715e-08
492.8	1.3278e-08
493.0	1.2855e-08
493.2	1.2762e-08
493.4	1.2836e-08
493.6	1.2909e-08
493.8	1.2984e-08
494.0	1.3058e-08
494.2	1.3133e-08
494.4	1.3209e-08
494.6	1.3285e-08
494.8	1.3361e-08
495.0	1.3438e-08
495.2	1.0644e-08
495.4	8.4305e-09
495.6	6.6776e-09
495.8	5.2892e-09
496.0	4.1895e-09
496.2	3.3184e-09
496.4	2.6284e-09
496.6	2.0819e-09
496.8	1.649e-09
497.0	1.3062e-09
497.2	1.2865e-09
497.4	1.2817e-09
497.6	1.2769e-09
497.8	1.2721e-09
498.0	1.2674e-09
498.2	1.2626e-09
498.4	1.2579e-09
498.6	1.2533e-09
498.8	1.2486e-09
499.0	1.2439e-09
499.2	1.2395e-09
499.4	1.2351e-09
499.6	1.2308e-09
499.8	1.2264e-09
500.0	1.2221e-09
500.2	1.2178e-09
500.4	1.2135e-09
500.6	1.2092e-09
500.8	1.2049e-09
501.0	1.2007e-09
501.2	1.4138e-09
501.4	1.7524e-09
501.6	2.172e-09
501.8	2.6922e-09
502.0	3.3369e-09
502.2	4.136e-09
502.4	5.1265e-09
502.6	6.3541e-09
502.8	7.8758e-09
503.0	9.7618e-09
503.2	1.0544e-08
503.4	1.0659e-08
503.6	1.0775e-08
503.8	1.0893e-08
504.0	1.1012e-08
504.2	1.1132e-08
504.4	1.1253e-08
504.6	1.1376e-08
504.8	1.15e-08
505.0	1.1625e-08
505.2	1.1251e-08
505.4	1.089e-08
505.6	1.0539e-08
505.8	1.0201e-08
506.0	9.8725e-09
506.2	9.5551e-09
506.4	9.2478e-09
506.6	8.9504e-09
506.8	8.6626e-09
507.0	8.384e-09
507.2	8.9154e-09
507.4	9.5129e-09
507.6	1.015e-08
507.8	1.0831e-08
508.0	1.1557e-08
508.2	1.2331e-08
508.4	1.3157e-08
508.6	1.4039e-08
508.8	1.498e-08
509.0	1.5984e-08
509.2	1.343e-08
509.4	1.0905e-08
509.6	8.8554e-09
509.8	7.1907e-09
510.0	5.8389e-09
510.2	4.7413e-09
510.4	3.85e-09
510.6	3.1263e-09
510.8	2.5386e-09
511.0	2.0614e-09
511.2	1.8643e-09
511.4	1.7351e-09
511.6	1.6148e-09
511.8	1.5029e-09
512.0	1.3987e-09
512.2	1.3017e-09
512.4	1.2115e-09
512.6	1.1275e-09
512.8	1.0494e-09
513.0	9.7662e-10
513.2	9.5478e-10
513.4	9.5286e-10
513.6	9.5094e-10
513.8	9.4903e-10
514.0	9.4711e-10
514.2	9.4521e-10
514.4	9.433e-10
514.6	9.414e-10
514.8	9.3951e-10
515.0	9.3761e-10
515.2	9.3385e-10
515.4	9.301e-10
515.6	9.2637e-10
515.8	9.2265e-10
516.0	9.1894e-10
516.2	9.1525e-10
516.4	9.1158e-10
516.6	9.0792e-10
516.8	9.0428e-10
517.0	9.0064e-10
517.2	1.0983e-09
517.4	1.3614e-09
517.6	1.6877e-09
517.8	2.0921e-09
518.0	2.5934e-09
518.2	3.2148e-09
518.4	3.9851e-09
518.6	4.94e-09
518.8	6.1237e-09
519.0	7.591e-09
519.2	6.5321e-09
519.4	5.2433e-09
519.6	4.2087e-09
519.8	3.3783e-09
520.0	2.7118e-09
520.2	2.1767e-09
520.4	1.7473e-09
520.6	1.4025e-09
520.8	1.1258e-09
521.0	9.0367e-10
521.2	9.4927e-10
521.4	1.0856e-09
521.6	1.2415e-09
521.8	1.4197e-09
522.0	1.6236e-09
522.2	1.8568e-09
522.4	2.1234e-09
522.6	2.4283e-09
522.8	2.777e-09
523.0	3.1757e-09
523.2	3.7017e-09
523.4	4.3526e-09
523.6	5.1181e-09
523.8	6.0182e-09
524.0	7.0765e-09
524.2	8.321e-09
524.4	9.7844e-09
524.6	1.1505e-08
524.8	1.3528e-08
525.0	1.5908e-08
525.2	1.5537e-08
525.4	1.5175e-08
525.6	1.4821e-08
525.8	1.4475e-08
526.0	1.4138e-08
526.2	1.3808e-08
526.4	1.3486e-08
526.6	1.3172e-08
526.8	1.2865e-08
527.0	1.2565e-08
527.2	1.2521e-08
527.4	1.2492e-08
527.6	1.2464e-08
527.8	1.2436e-08
528.0	1.2408e-08
528.2	1.238e-08
528.4	1.2352e-08
528.6	1.2324e-08
528.8	1.2297e-08
529.0	1.2269e-08
529.2	1.203e-08
529.4	1.1764e-08
529.6	1.1503e-08
529.8	1.1249e-08
530.0	1.0999e-08
530.2	1.0756e-08
530.4	1.0518e-08
530.6	1.0285e-08
530.8	1.0057e-08
531.0	9.8346e-09
531.2	9.7104e-09
531.4	9.6125e-09
531.6	9.5156e-09
531.8	9.4196e-09
532.0	9.3246e-09
532.2	9.2306e-09
