Typical Measured Spectrum of Semrock FF02-475/50 Optical Filter
For wavelengths between 320 and 1120 nm, values near or below 3e-7 (Optical Density 6.5) are measurement noise limited.
For wavelengths < 320 nm and > 1120 nm, values near or below 3e-6 (Optical Density 5.5) are measurement noise limited. 
Data format:  Wavelength (nm) <tab> Transmission (0 to 1)
265.0	6.2999e-07
265.2	6.2272e-07
265.4	6.1554e-07
265.6	6.0843e-07
265.8	6.0141e-07
266.0	5.9447e-07
266.2	5.8761e-07
266.4	5.8083e-07
266.6	5.7413e-07
266.8	5.675e-07
267.0	5.6113e-07
267.2	5.5566e-07
267.4	5.5025e-07
267.6	5.4489e-07
267.8	5.3958e-07
268.0	5.3432e-07
268.2	5.2911e-07
268.4	5.2396e-07
268.6	5.1885e-07
268.8	5.138e-07
269.0	5.0879e-07
269.2	5.0384e-07
269.4	4.9893e-07
269.6	4.9407e-07
269.8	4.8925e-07
270.0	4.8449e-07
270.2	4.7977e-07
270.4	4.7509e-07
270.6	4.7046e-07
270.8	4.6598e-07
271.0	4.6163e-07
271.2	4.5732e-07
271.4	4.5304e-07
271.6	4.4881e-07
271.8	4.4462e-07
272.0	4.4047e-07
272.2	4.3635e-07
272.4	4.3228e-07
272.6	4.2824e-07
272.8	4.2424e-07
273.0	4.2028e-07
273.2	4.1635e-07
273.4	4.1246e-07
273.6	4.0861e-07
273.8	4.0479e-07
274.0	4.0101e-07
274.2	3.9726e-07
274.4	3.9355e-07
274.6	1.0804e-06
274.8	3.3425e-06
275.0	1.0341e-05
275.2	1.0835e-05
275.4	1.1353e-05
275.6	1.001e-05
275.8	8.2387e-06
276.0	6.7811e-06
276.2	5.5813e-06
276.4	4.5939e-06
276.6	3.7811e-06
276.8	3.1121e-06
277.0	2.5615e-06
277.2	2.1083e-06
277.4	1.7353e-06
277.6	1.4283e-06
277.8	1.1756e-06
278.0	9.676e-07
278.2	7.9641e-07
278.4	6.5551e-07
278.6	5.3953e-07
278.8	4.4408e-07
279.0	3.6551e-07
279.2	3.0521e-07
279.4	3.008e-07
279.6	2.9645e-07
279.8	2.9216e-07
280.0	2.8794e-07
280.2	2.8377e-07
280.4	2.7967e-07
280.6	2.7563e-07
280.8	2.7164e-07
281.0	2.6772e-07
281.2	2.6385e-07
281.4	2.6003e-07
281.6	2.5627e-07
281.8	2.5257e-07
282.0	2.4892e-07
282.2	2.4532e-07
282.4	2.4177e-07
282.6	2.3827e-07
282.8	2.3483e-07
283.0	2.3108e-07
283.2	2.2698e-07
283.4	2.2294e-07
283.6	2.1898e-07
283.8	2.1509e-07
284.0	2.1126e-07
284.2	2.0751e-07
284.4	2.0382e-07
284.6	2.002e-07
284.8	1.9664e-07
285.0	1.9314e-07
285.2	1.8968e-07
285.4	1.8629e-07
285.6	2.1123e-07
285.8	2.4971e-07
286.0	2.952e-07
286.2	3.4897e-07
286.4	4.1255e-07
286.6	4.877e-07
286.8	5.7655e-07
287.0	6.8158e-07
287.2	8.0575e-07
287.4	9.5253e-07
287.6	1.1261e-06
287.8	1.3312e-06
288.0	1.5737e-06
288.2	1.8604e-06
288.4	2.1993e-06
288.6	2.6e-06
288.8	3.0736e-06
289.0	3.6335e-06
289.2	4.1023e-06
289.4	3.5683e-06
289.6	3.1039e-06
289.8	2.6999e-06
290.0	2.3485e-06
290.2	2.0428e-06
290.4	1.7769e-06
290.6	1.5456e-06
290.8	1.3445e-06
291.0	1.1695e-06
291.2	1.0173e-06
291.4	8.8485e-07
291.6	7.6968e-07
291.8	6.695e-07
292.0	5.8236e-07
292.2	5.0656e-07
292.4	4.4063e-07
292.6	3.8328e-07
292.8	3.3339e-07
293.0	3.1686e-07
293.2	3.2574e-07
293.4	3.3488e-07
293.6	3.4428e-07
293.8	3.5394e-07
294.0	3.6387e-07
294.2	3.7408e-07
294.4	3.8457e-07
294.6	3.9536e-07
294.8	4.0645e-07
295.0	4.1786e-07
295.2	3.8525e-07
295.4	3.5519e-07
295.6	3.2747e-07
295.8	3.0192e-07
296.0	2.7836e-07
296.2	2.5664e-07
296.4	2.3662e-07
296.6	2.1815e-07
296.8	2.0113e-07
297.0	1.8544e-07
297.2	1.7097e-07
297.4	1.5762e-07
297.6	1.4533e-07
297.8	1.3399e-07
298.0	1.2692e-07
298.2	1.2553e-07
298.4	1.2417e-07
298.6	1.2281e-07
298.8	1.2147e-07
299.0	1.2015e-07
299.2	1.1884e-07
299.4	1.1754e-07
299.6	1.1626e-07
299.8	1.1499e-07
300.0	1.1374e-07
300.2	1.125e-07
300.4	1.1127e-07
300.6	1.1006e-07
300.8	1.0886e-07
301.0	1.0767e-07
301.2	1.0649e-07
301.4	1.0533e-07
301.6	1.0418e-07
301.8	1.1667e-07
302.0	1.3574e-07
302.2	1.5792e-07
302.4	1.8373e-07
302.6	2.1375e-07
302.8	2.4868e-07
303.0	2.8932e-07
303.2	3.366e-07
303.4	3.9161e-07
303.6	4.5561e-07
303.8	5.3006e-07
304.0	6.1668e-07
304.2	7.1746e-07
304.4	8.347e-07
304.6	9.7111e-07
304.8	1.1298e-06
305.0	1.3144e-06
305.2	1.1669e-06
305.4	1.0359e-06
305.6	9.6519e-07
305.8	1.0182e-06
306.0	1.0741e-06
306.2	1.1331e-06
306.4	1.1953e-06
306.6	1.261e-06
306.8	1.3302e-06
307.0	1.4033e-06
307.2	1.4803e-06
307.4	1.5616e-06
307.6	1.6474e-06
307.8	1.7378e-06
308.0	1.8333e-06
308.2	1.9339e-06
308.4	2.0401e-06
308.6	2.1522e-06
308.8	2.2704e-06
309.0	2.3951e-06
309.2	2.5266e-06
309.4	2.2724e-06
309.6	1.8685e-06
309.8	1.5364e-06
310.0	1.2633e-06
310.2	1.0387e-06
310.4	8.5407e-07
310.6	7.0225e-07
310.8	5.7742e-07
311.0	4.7478e-07
311.2	3.9039e-07
311.4	3.2099e-07
311.6	2.6393e-07
311.8	2.1702e-07
312.0	1.7844e-07
312.2	1.4672e-07
312.4	1.2064e-07
312.6	9.9196e-08
312.8	8.1564e-08
313.0	6.7193e-08
313.2	6.6849e-08
313.4	6.6506e-08
313.6	6.6165e-08
313.8	6.5826e-08
314.0	6.5489e-08
314.2	6.5153e-08
314.4	6.4819e-08
314.6	6.4487e-08
314.8	6.4157e-08
315.0	6.3828e-08
315.2	6.3501e-08
315.4	6.3175e-08
315.6	6.2851e-08
315.8	6.2529e-08
316.0	6.2209e-08
316.2	6.189e-08
316.4	6.1573e-08
316.6	6.1257e-08
316.8	6.4793e-08
317.0	7.5421e-08
317.2	8.7794e-08
317.4	1.022e-07
317.6	1.1896e-07
317.8	1.3847e-07
318.0	1.6119e-07
318.2	1.8763e-07
318.4	2.1841e-07
318.6	2.5424e-07
318.8	2.9595e-07
319.0	3.445e-07
319.2	4.0101e-07
319.4	4.6679e-07
319.6	5.4336e-07
319.8	6.325e-07
320.0	7.3626e-07
320.2	8.5703e-07
320.4	9.9762e-07
320.6	9.1326e-07
320.8	7.797e-07
321.0	6.6567e-07
321.2	5.6832e-07
321.4	4.8521e-07
321.6	4.1425e-07
321.8	3.5367e-07
322.0	3.0195e-07
322.2	2.5779e-07
322.4	2.2009e-07
322.6	1.879e-07
322.8	1.6042e-07
323.0	1.3696e-07
323.2	1.1693e-07
323.4	9.9831e-08
323.6	8.5232e-08
323.8	7.2767e-08
324.0	6.2125e-08
324.2	5.4337e-08
324.4	5.3703e-08
324.6	5.3077e-08
324.8	5.2458e-08
325.0	5.1846e-08
325.2	5.1242e-08
325.4	5.0644e-08
325.6	5.0054e-08
325.8	4.947e-08
326.0	4.8893e-08
326.2	4.8323e-08
326.4	4.776e-08
326.6	4.7203e-08
326.8	4.6653e-08
327.0	4.6109e-08
327.2	4.5571e-08
327.4	4.504e-08
327.6	4.4514e-08
327.8	4.3995e-08
328.0	4.3512e-08
328.2	4.3056e-08
328.4	4.2605e-08
328.6	4.2159e-08
328.8	4.1717e-08
329.0	4.128e-08
329.2	4.0848e-08
329.4	4.042e-08
329.6	3.9997e-08
329.8	3.9578e-08
330.0	3.9163e-08
330.2	3.8753e-08
330.4	3.8347e-08
330.6	3.7945e-08
330.8	3.7548e-08
331.0	3.7154e-08
331.2	3.6765e-08
331.4	3.638e-08
331.6	3.5999e-08
331.8	4.0597e-08
332.0	4.5937e-08
332.2	5.1979e-08
332.4	5.8815e-08
332.6	6.6551e-08
332.8	7.5304e-08
333.0	8.5208e-08
333.2	9.6415e-08
333.4	1.091e-07
333.6	1.2344e-07
333.8	1.3968e-07
334.0	1.5805e-07
334.2	1.7884e-07
334.4	2.0236e-07
334.6	2.2898e-07
334.8	2.5909e-07
335.0	2.9317e-07
335.2	1.2756e-07
335.4	5.5506e-08
335.6	3.1759e-08
335.8	3.3912e-08
336.0	3.6212e-08
336.2	3.8668e-08
336.4	4.129e-08
336.6	4.409e-08
336.8	4.708e-08
337.0	5.0273e-08
337.2	5.3682e-08
337.4	5.7322e-08
337.6	6.121e-08
337.8	6.536e-08
338.0	6.9793e-08
338.2	7.4526e-08
338.4	7.958e-08
338.6	8.4976e-08
338.8	9.0739e-08
339.0	9.6892e-08
339.2	1.0346e-07
339.4	9.9775e-08
339.6	9.2011e-08
339.8	8.4851e-08
340.0	7.8248e-08
340.2	7.2159e-08
340.4	6.6543e-08
340.6	6.1365e-08
340.8	5.659e-08
341.0	5.2186e-08
341.2	4.8125e-08
341.4	4.438e-08
341.6	4.0927e-08
341.8	3.7742e-08
342.0	3.4805e-08
342.2	3.2096e-08
342.4	2.9599e-08
342.6	2.7295e-08
342.8	2.5171e-08
343.0	2.3377e-08
343.2	2.3315e-08
343.4	2.3253e-08
343.6	2.3192e-08
343.8	2.313e-08
344.0	2.3069e-08
344.2	2.3008e-08
344.4	2.2947e-08
344.6	2.2886e-08
344.8	2.2826e-08
345.0	2.2765e-08
345.2	2.2705e-08
345.4	2.2645e-08
345.6	2.2585e-08
345.8	2.2525e-08
346.0	2.2465e-08
346.2	2.2406e-08
346.4	2.2347e-08
346.6	2.2287e-08
346.8	2.3788e-08
347.0	2.7247e-08
347.2	3.121e-08
347.4	3.5748e-08
347.6	4.0946e-08
347.8	4.69e-08
348.0	5.372e-08
348.2	6.1532e-08
348.4	7.0479e-08
348.6	8.0728e-08
348.8	9.2467e-08
349.0	1.0591e-07
349.2	1.2131e-07
349.4	1.3895e-07
349.6	1.5916e-07
349.8	1.823e-07
350.0	2.0881e-07
350.2	2.3918e-07
350.4	2.7396e-07
350.6	2.4611e-07
350.8	2.1552e-07
351.0	1.8873e-07
351.2	1.6528e-07
351.4	1.4473e-07
351.6	1.2675e-07
351.8	1.1099e-07
352.0	9.7199e-08
352.2	8.5119e-08
352.4	7.454e-08
352.6	6.5276e-08
352.8	5.7163e-08
353.0	5.0058e-08
353.2	4.3837e-08
353.4	3.8389e-08
353.6	3.3618e-08
353.8	2.9439e-08
354.0	2.578e-08
354.2	2.3563e-08
354.4	2.3584e-08
354.6	2.3606e-08
354.8	2.3627e-08
355.0	2.3649e-08
355.2	2.3671e-08
355.4	2.3692e-08
355.6	2.3714e-08
355.8	2.3736e-08
356.0	2.3757e-08
356.2	2.3779e-08
356.4	2.3801e-08
356.6	2.3823e-08
356.8	2.3844e-08
357.0	2.3866e-08
357.2	2.3888e-08
357.4	2.391e-08
357.6	2.3932e-08
357.8	2.3954e-08
358.0	2.4142e-08
358.2	2.4388e-08
358.4	2.4636e-08
358.6	2.4886e-08
358.8	2.514e-08
359.0	2.5396e-08
359.2	2.5654e-08
359.4	2.5915e-08
359.6	2.6179e-08
359.8	2.6445e-08
360.0	2.6715e-08
360.2	2.6986e-08
360.4	2.7261e-08
360.6	2.7539e-08
360.8	2.7819e-08
361.0	2.8102e-08
361.2	2.8388e-08
361.4	2.8677e-08
361.6	2.9366e-08
361.8	3.1932e-08
362.0	3.4722e-08
362.2	3.7756e-08
362.4	4.1055e-08
362.6	4.4642e-08
362.8	4.8543e-08
363.0	5.2785e-08
363.2	5.7397e-08
363.4	6.2412e-08
363.6	6.7866e-08
363.8	7.3795e-08
364.0	8.0243e-08
364.2	8.7255e-08
364.4	9.4879e-08
364.6	1.0317e-07
364.8	1.1218e-07
365.0	1.2199e-07
365.2	1.1545e-07
365.4	1.0927e-07
365.6	1.0342e-07
365.8	9.7878e-08
366.0	9.2636e-08
366.2	8.7674e-08
366.4	8.2979e-08
366.6	7.8534e-08
366.8	7.4328e-08
367.0	7.0549e-08
367.2	6.7334e-08
367.4	6.4266e-08
367.6	6.1338e-08
367.8	5.8544e-08
368.0	5.5876e-08
368.2	5.333e-08
368.4	5.09e-08
368.6	4.8581e-08
368.8	4.6368e-08
369.0	4.4255e-08
369.2	4.2239e-08
369.4	4.0314e-08
369.6	3.8477e-08
369.8	3.6724e-08
370.0	3.5051e-08
370.2	3.3454e-08
370.4	3.193e-08
370.6	3.0475e-08
370.8	2.9086e-08
371.0	2.7761e-08
371.2	2.6496e-08
371.4	2.5289e-08
371.6	2.4733e-08
371.8	2.4658e-08
372.0	2.4583e-08
372.2	2.4508e-08
372.4	2.4433e-08
372.6	2.4359e-08
372.8	2.4285e-08
373.0	2.4211e-08
373.2	2.4137e-08
373.4	2.4063e-08
373.6	2.399e-08
373.8	2.3917e-08
374.0	2.3844e-08
374.2	2.3771e-08
374.4	2.3699e-08
374.6	2.3627e-08
374.8	2.3555e-08
375.0	2.3483e-08
375.2	2.5289e-08
375.4	2.7714e-08
375.6	3.0372e-08
375.8	3.3284e-08
376.0	3.6476e-08
376.2	3.9975e-08
376.4	4.3808e-08
376.6	4.801e-08
376.8	5.2614e-08
377.0	5.766e-08
377.2	6.3189e-08
377.4	6.9249e-08
377.6	7.589e-08
377.8	8.3168e-08
378.0	9.1144e-08
378.2	9.9885e-08
378.4	1.0946e-07
378.6	1.1996e-07
378.8	1.3147e-07
379.0	1.4408e-07
379.2	1.5789e-07
379.4	1.7303e-07
379.6	1.8963e-07
379.8	2.0781e-07
380.0	2.2774e-07
380.2	2.1085e-07
380.4	1.874e-07
380.6	1.6656e-07
380.8	1.4803e-07
381.0	1.3157e-07
381.2	1.1694e-07
381.4	1.0393e-07
381.6	9.2372e-08
381.8	8.2098e-08
382.0	7.2967e-08
382.2	6.4851e-08
382.4	5.7639e-08
382.6	5.1228e-08
382.8	4.553e-08
383.0	4.0466e-08
383.2	3.5966e-08
383.4	3.1966e-08
383.6	2.841e-08
383.8	2.525e-08
384.0	2.2442e-08
384.2	1.9946e-08
384.4	1.9133e-08
384.6	1.9039e-08
384.8	1.8945e-08
385.0	1.8852e-08
385.2	1.876e-08
385.4	1.8668e-08
385.6	1.8576e-08
385.8	1.8485e-08
386.0	1.8395e-08
386.2	1.8304e-08
386.4	1.8215e-08
386.6	1.8125e-08
386.8	1.8036e-08
387.0	1.7948e-08
387.2	1.786e-08
387.4	1.7772e-08
387.6	1.7685e-08
387.8	1.7598e-08
388.0	1.888e-08
388.2	2.0344e-08
388.4	2.1921e-08
388.6	2.3621e-08
388.8	2.5453e-08
389.0	2.7426e-08
389.2	2.9553e-08
389.4	3.1845e-08
389.6	3.4314e-08
389.8	3.6975e-08
390.0	3.9842e-08
390.2	4.2931e-08
390.4	4.626e-08
390.6	4.9352e-08
390.8	4.7599e-08
391.0	4.5908e-08
391.2	4.4277e-08
391.4	4.2704e-08
391.6	4.1187e-08
391.8	3.9724e-08
392.0	3.8313e-08
392.2	3.6952e-08
392.4	3.5639e-08
392.6	3.4373e-08
392.8	3.3152e-08
393.0	3.1974e-08
393.2	3.0838e-08
393.4	2.9743e-08
393.6	2.8433e-08
393.8	2.7169e-08
394.0	2.5962e-08
394.2	2.4808e-08
394.4	2.3705e-08
394.6	2.2652e-08
394.8	2.1645e-08
395.0	2.0683e-08
395.2	1.9764e-08
395.4	1.8885e-08
395.6	1.8046e-08
395.8	1.7244e-08
396.0	1.6478e-08
396.2	1.5745e-08
396.4	1.5045e-08
396.6	1.4377e-08
396.8	1.3738e-08
397.0	1.3456e-08
397.2	1.4354e-08
397.4	1.5312e-08
397.6	1.6333e-08
397.8	1.7423e-08
398.0	1.8585e-08
398.2	1.9825e-08
398.4	2.1148e-08
398.6	2.2559e-08
398.8	2.4064e-08
399.0	2.5669e-08
399.2	2.7382e-08
399.4	2.9209e-08
399.6	3.1158e-08
399.8	3.3236e-08
400.0	3.5454e-08
400.2	3.7819e-08
400.4	4.0342e-08
400.6	4.3034e-08
400.8	4.5905e-08
401.0	4.8967e-08
401.2	5.2234e-08
401.4	5.5719e-08
401.6	5.9437e-08
401.8	6.3402e-08
402.0	6.5602e-08
402.2	6.1466e-08
402.4	5.7591e-08
402.6	5.396e-08
402.8	5.0558e-08
403.0	4.7371e-08
403.2	4.4385e-08
403.4	4.1586e-08
403.6	3.8965e-08
403.8	3.6508e-08
404.0	3.4207e-08
404.2	3.205e-08
404.4	3.003e-08
404.6	2.8136e-08
404.8	2.6363e-08
405.0	2.4701e-08
405.2	2.3143e-08
405.4	2.1684e-08
405.6	2.0317e-08
405.8	1.9037e-08
406.0	1.7836e-08
406.2	1.6712e-08
406.4	1.5658e-08
406.6	1.4671e-08
406.8	1.3746e-08
407.0	1.3118e-08
407.2	1.3248e-08
407.4	1.3379e-08
407.6	1.3511e-08
407.8	1.3644e-08
408.0	1.3779e-08
408.2	1.3915e-08
408.4	1.4052e-08
408.6	1.4191e-08
408.8	1.4331e-08
409.0	1.4472e-08
409.2	1.4615e-08
409.4	1.4759e-08
409.6	1.4905e-08
409.8	1.5052e-08
410.0	1.5201e-08
410.2	1.5351e-08
410.4	1.5502e-08
410.6	1.5655e-08
410.8	1.581e-08
411.0	1.5966e-08
411.2	1.6123e-08
411.4	1.6282e-08
411.6	1.6443e-08
411.8	1.6605e-08
412.0	1.7042e-08
412.2	1.8405e-08
412.4	1.9877e-08
412.6	2.1466e-08
412.8	2.3183e-08
413.0	2.5037e-08
413.2	2.704e-08
413.4	2.9203e-08
413.6	3.1538e-08
413.8	3.4061e-08
414.0	3.6785e-08
414.2	3.9727e-08
414.4	4.2904e-08
414.6	4.6336e-08
414.8	5.0042e-08
415.0	5.4044e-08
415.2	5.8367e-08
415.4	6.3035e-08
415.6	6.8076e-08
415.8	7.3521e-08
416.0	7.9401e-08
416.2	8.5752e-08
416.4	9.261e-08
416.6	1.0002e-07
416.8	1.0802e-07
417.0	1.1434e-07
417.2	1.1356e-07
417.4	1.1279e-07
417.6	1.1203e-07
417.8	1.1127e-07
418.0	1.1052e-07
418.2	1.0978e-07
418.4	1.0903e-07
418.6	1.083e-07
418.8	1.0756e-07
419.0	1.0684e-07
419.2	1.0611e-07
419.4	1.054e-07
419.6	1.0468e-07
419.8	1.0398e-07
420.0	1.0327e-07
420.2	1.0258e-07
420.4	1.0188e-07
420.6	1.0119e-07
420.8	1.0051e-07
421.0	1.0e-07
421.2	1.0e-07
421.4	1.0e-07
421.6	1.0e-07
421.8	1.0e-07
422.0	1.0e-07
422.2	1.0e-07
422.4	1.0e-07
422.6	1.0e-07
422.8	1.0e-07
423.0	1.0e-07
423.2	1.0e-07
423.4	1.0e-07
423.6	1.0e-07
423.8	1.0e-07
424.0	1.0e-07
424.2	1.0e-07
424.4	1.0e-07
424.6	1.0e-07
424.8	1.0e-07
425.0	1.0e-07
425.2	1.0e-07
425.4	1.0e-07
425.6	1.0e-07
425.8	1.0e-07
426.0	1.0e-07
426.2	1.0e-07
426.4	1.0e-07
426.6	1.0e-07
426.8	1.0e-07
427.0	1.0e-07
427.2	1.0e-07
427.4	1.0e-07
427.6	1.0e-07
427.8	1.0e-07
428.0	1.0e-07
428.2	1.0e-07
428.4	1.0e-07
428.6	9.8862e-08
428.8	9.6878e-08
429.0	9.4935e-08
429.2	9.3031e-08
429.4	9.1165e-08
429.6	8.9336e-08
429.8	8.7544e-08
430.0	8.5788e-08
430.2	1.4393e-07
430.4	9.2272e-08
430.6	1.8531e-07
430.8	3.6849e-07
431.0	2.2553e-07
431.2	2.2563e-07
431.4	1.3147e-07
431.6	7.5296e-08
431.8	7.5219e-08
432.0	7.5141e-08
432.2	1.2059e-07
432.4	1.501e-07
432.6	7.5076e-08
432.8	7.4991e-08
433.0	7.4869e-08
433.2	7.4661e-08
433.4	7.4404e-08
433.6	7.4167e-08
433.8	7.4067e-08
434.0	1.0568e-07
434.2	7.3499e-08
434.4	7.3177e-08
434.6	7.2816e-08
434.8	2.1116e-07
435.0	2.8629e-07
435.2	2.7006e-07
435.4	5.952e-07
435.6	1.3621e-07
435.8	7.1408e-08
436.0	7.1185e-08
436.2	7.0967e-08
436.4	7.093e-08
436.6	2.14e-07
436.8	7.0885e-08
437.0	8.4907e-08
437.2	4.3947e-07
437.4	3.5656e-07
437.6	1.4975e-07
437.8	1.1612e-07
438.0	3.787e-07
438.2	1.202e-07
438.4	7.1659e-08
438.6	9.8994e-08
438.8	2.0845e-07
439.0	1.514e-07
439.2	7.2102e-08
439.4	1.0813e-07
439.6	2.5677e-07
439.8	8.5479e-08
440.0	7.2132e-08
440.2	1.7696e-07
440.4	7.2451e-08
440.6	7.2629e-08
440.8	1.1859e-07
441.0	1.0358e-07
441.2	1.1664e-07
441.4	3.9198e-07
441.6	7.3551e-07
441.8	3.6467e-07
442.0	6.9579e-07
442.2	8.2014e-07
442.4	1.5313e-06
442.6	1.6493e-06
442.8	2.0701e-06
443.0	4.213e-06
443.2	4.8371e-06
443.4	6.7069e-06
443.6	1.0164e-05
443.8	1.5868e-05
444.0	2.4362e-05
444.2	3.7782e-05
444.4	6.3559e-05
444.6	9.9592e-05
444.8	1.6189e-04
445.0	2.6607e-04
445.2	4.4298e-04
445.4	7.6026e-04
445.6	0.00157
445.8	0.00274
446.0	0.00479
446.2	0.00895
446.4	0.01738
446.6	0.03496
446.8	0.07374
447.0	0.13277
447.2	0.27055
447.4	0.49105
447.6	0.72806
447.8	0.88455
448.0	0.94367
448.2	0.95611
448.4	0.95842
448.6	0.95941
448.8	0.96408
449.0	0.96802
449.2	0.9706
449.4	0.97281
449.6	0.97486
449.8	0.97603
450.0	0.97859
450.2	0.98057
450.4	0.98167
450.6	0.98173
450.8	0.98205
451.0	0.98258
451.2	0.98167
451.4	0.9813
451.6	0.98169
451.8	0.98116
452.0	0.98153
452.2	0.98199
452.4	0.98224
452.6	0.98278
452.8	0.98224
453.0	0.98154
453.2	0.98061
453.4	0.9801
453.6	0.97852
453.8	0.97727
454.0	0.97522
454.2	0.97471
454.4	0.97428
454.6	0.97358
454.8	0.97409
455.0	0.97584
455.2	0.97612
455.4	0.97749
455.6	0.9789
455.8	0.97973
456.0	0.98051
456.2	0.97937
456.4	0.98043
456.6	0.97899
456.8	0.97897
457.0	0.9785
457.2	0.97794
457.4	0.97938
457.6	0.97911
457.8	0.98037
458.0	0.98077
458.2	0.98157
458.4	0.98227
458.6	0.9828
458.8	0.98467
459.0	0.98459
459.2	0.9859
459.4	0.98477
459.6	0.9865
459.8	0.9862
460.0	0.98615
460.2	0.98768
460.4	0.98797
460.6	0.98932
460.8	0.99024
461.0	0.99034
461.2	0.98977
461.4	0.98885
461.6	0.98765
461.8	0.98549
462.0	0.98449
462.2	0.98058
462.4	0.97831
462.6	0.97499
462.8	0.97285
463.0	0.97071
463.2	0.96824
463.4	0.96626
463.6	0.96606
463.8	0.96549
464.0	0.96351
464.2	0.96401
464.4	0.96425
464.6	0.96409
464.8	0.9638
465.0	0.96251
465.2	0.96319
465.4	0.96264
465.6	0.96372
465.8	0.96443
466.0	0.96608
466.2	0.96755
466.4	0.96927
466.6	0.97242
466.8	0.97556
467.0	0.97713
467.2	0.97944
467.4	0.98219
467.6	0.9829
467.8	0.98514
468.0	0.98449
468.2	0.98368
468.4	0.98435
468.6	0.98362
468.8	0.98415
469.0	0.98426
469.2	0.98493
469.4	0.98537
469.6	0.98556
469.8	0.98489
470.0	0.98615
470.2	0.98487
470.4	0.98462
470.6	0.98356
470.8	0.98183
471.0	0.98046
471.2	0.97861
471.4	0.97704
471.6	0.9745
471.8	0.97425
472.0	0.97192
472.2	0.97111
472.4	0.97164
472.6	0.96921
472.8	0.96927
473.0	0.96925
473.2	0.96895
473.4	0.96779
473.6	0.96718
473.8	0.96577
474.0	0.9657
474.2	0.96425
474.4	0.96324
474.6	0.9634
474.8	0.96399
475.0	0.9641
475.2	0.96523
475.4	0.96669
475.6	0.96929
475.8	0.97174
476.0	0.97376
476.2	0.97678
476.4	0.9787
476.6	0.98165
476.8	0.98251
477.0	0.98402
477.2	0.98523
477.4	0.98663
477.6	0.98764
477.8	0.98801
478.0	0.98827
478.2	0.98822
478.4	0.98831
478.6	0.98853
478.8	0.98862
479.0	0.98585
479.2	0.9841
479.4	0.9811
479.6	0.97811
479.8	0.9746
480.0	0.97111
480.2	0.96798
480.4	0.96512
480.6	0.96198
480.8	0.96114
481.0	0.95887
481.2	0.95781
481.4	0.95742
481.6	0.95642
481.8	0.95663
482.0	0.95698
482.2	0.95626
482.4	0.95737
482.6	0.95544
482.8	0.9566
483.0	0.95538
483.2	0.95644
483.4	0.95694
483.6	0.95721
483.8	0.95928
484.0	0.96311
484.2	0.96464
484.4	0.96883
484.6	0.97196
484.8	0.97636
485.0	0.97865
485.2	0.98199
485.4	0.98295
485.6	0.98559
485.8	0.98614
486.0	0.98692
486.2	0.98715
486.4	0.98785
486.6	0.98846
486.8	0.98916
487.0	0.98873
487.2	0.98947
487.4	0.98882
487.6	0.9887
487.8	0.98773
488.0	0.98622
488.2	0.9842
488.4	0.98173
488.6	0.97892
488.8	0.97669
489.0	0.97464
489.2	0.97363
489.4	0.9719
489.6	0.97199
489.8	0.97336
490.0	0.97478
490.2	0.97586
490.4	0.97769
490.6	0.9794
490.8	0.98035
491.0	0.98061
491.2	0.98088
491.4	0.98036
491.6	0.97965
491.8	0.97892
492.0	0.97876
492.2	0.9789
492.4	0.9799
492.6	0.98115
492.8	0.98292
493.0	0.98337
493.2	0.98422
493.4	0.98396
493.6	0.98428
493.8	0.98321
494.0	0.98224
494.2	0.98035
494.4	0.97936
494.6	0.97881
494.8	0.97916
495.0	0.98083
495.2	0.98133
495.4	0.98309
495.6	0.9832
495.8	0.98394
496.0	0.98279
496.2	0.98196
496.4	0.98074
496.6	0.97901
496.8	0.97756
497.0	0.97704
497.2	0.97729
497.4	0.9771
497.6	0.97794
497.8	0.97903
498.0	0.97987
498.2	0.98005
498.4	0.98015
498.6	0.97943
498.8	0.97819
499.0	0.97768
499.2	0.97568
499.4	0.97364
499.6	0.96976
499.8	0.96314
500.0	0.95567
500.2	0.94864
500.4	0.94176
500.6	0.93823
500.8	0.93919
501.0	0.94583
501.2	0.9556
501.4	0.96355
501.6	0.96517
501.8	0.95868
502.0	0.94713
502.2	0.93877
502.4	0.93918
502.6	0.9487
502.8	0.93895
503.0	0.83712
503.2	0.58555
503.4	0.30091
503.6	0.11882
503.8	0.04135
504.0	0.0148
504.2	0.00597
504.4	0.00276
504.6	8.5548e-04
504.8	3.6331e-04
505.0	1.5533e-04
505.2	7.0185e-05
505.4	3.4464e-05
505.6	1.8278e-05
505.8	1.0092e-05
506.0	6.2389e-06
506.2	3.6021e-06
506.4	2.0797e-06
506.6	1.4278e-06
506.8	9.837e-07
507.0	7.3206e-07
507.2	5.9791e-07
507.4	5.5253e-07
507.6	5.106e-07
507.8	4.5279e-07
508.0	3.8562e-07
508.2	3.2841e-07
508.4	3.7423e-07
508.6	3.9163e-07
508.8	3.7596e-07
